3596
4000.36533379555
650.420452594757
1
2
2
0.0598890336313314
0.0430254540060237
0.0608906383072951
0.040050285174993
0.0568098070829953
0.0431515698967291
0.0573398089623083
0.0468301177578183
0.0532583628846944
0.0324317190835626
0.0484531859110257
0.0424519216893657
0.0597548621076192
0.0415735102135336
0.0540251389804074
0.0344437862525537
0.0459595775428127
0.0408591577980817
0.0560360844373989
0.0391838485135982
0.0623955824830276
0.0432888470122313
0.0592008955732924
0.041701554241253
0.0590644809931004
0.0402329010136199
0.0500979480962332
0.0519852746528837
0.0617465635248284
0.0450938332224628
0.0580947262747388
0.0498895254257899
0.0530240609600337
0.0432466897397403
0.0530484499260023
0.0387595236960512
0.0517458499940286
0.0488922772585917
0.0664865879297873
0.0421638658734021
0.0616115075112412
0.0476230169295796
0.05598470448619
0.0454347915666233
0.0530088852239099
0.0390943481792738
0.0490097148413745
0.0434977026343757
0.0547795131179823
0.0412296217512848
0.0579703190160831
0.0335229185590716
0.0578014997075459
0.0505100066445025
0.0445811268367493
0.0435188671997108
0.0452068143952696
0.0370629560182315
0.0538834414732153
0.0422210447097469
0.0433188324574494
0.0420930719379484
0.044349789978969
0.0440837473184416
0.0508740575872293
0.0405730114795475
0.0438339279113483
0.0433218524150954
0.0474863700000516
0.0468948647816896
0.0444924992404977
0.0298718752417153
0.0499077906373733
0.0359052877674002
0.0559218621357145
0.0434233943788657
0.0541759550504213
0.0428010337147178
0.0454597336130423
0.0276171682467832
0.0563217417776923
0.0289076372675905
0.0490246242941771
0.0396462227130393
0.0391812494232857
0.037659628786019
0.051974587131729
0.0290652929683992
0.0649009789996478
0.0351411418989436
0.0446767246213571
0.030822072564243
0.0464923779182136
0.0414693891390202
0.0542711971815966
0.0396294077476916
0.0519906049992651
0.0316414348521021
0.0519620938072722
0.0280764451192626
0.0691506214150612
0.0239269575682803
0.0759015571292224
0.0224753032188406
0.0462403755875347
0.0527866627910957
0.0312680606648779
0.0533408176529179
0.0408899622526577
0.0392978213254109
0.0492018611347919
0.0376806237204195
0.0313972022495621
0.029106291500098
0.0487006775005297
0.0360749243770556
0.0587579589179698
0.0379572531325371
0.046609680021727
0.0357391418892522
0.0601998964290898
0.026890245183997
0.0784546994213483
0.0226758689645367
0.0469180590506177
0.0310769112695496
0.0481145277050493
0.0241529238866672
0.061863523305967
0.0327682662672005
0.05104666568944
0.02846298169177
0.0490687425274673
0.0214190771106458
0.079621960981153
0.031570596444517
0.044766897031181
0.0346789071163102
0.0424123923684195
0.0392847792729497
0.0442336305387822
0.0305186899135901
0.0506908051391222
0.0317864980275402
0.0569564946180527
0.0248479806514516
0.0502920476934769
0.0383208822468206
0.0522130806912897
0.0216635772628418
0.0471535481750246
0.035303532287387
0.0438050339614055
0.0341926352009864
0.0585164060123941
-0.000556075035618385
0.0969804222996272
0.00275389856725626
0.0758320770429825
0.0289235910343454
0.0464309017858717
0.0337385341579045
0.039748389362067
0.0387599670203013
0.0368537790278176
0.0346397322756478
0.0441401999567593
0.0508795933298996
0.0473124401695242
0.0480425542328129
0.0547020455658813
0.0420615649370061
0.0427427185692892
0.0201913268330537
0.0524467181565902
0.016116925319451
0.0696641325195153
0.0302577607546904
0.0541820934900927
0.0238349065504885
0.0505287985251002
0.031033634099994
0.0462196121576468
0.0321797707151442
0.0531240538666634
0.0315546236533359
0.0549163167555241
0.0263721520544655
0.0498174993963061
0.0309188038479459
0.0589681887272288
0.0160104451139537
0.0604366496369661
0.0274237989955042
0.049452073983223
0.0304159892811594
0.040119187166445
0.0483760559246889
0.0329634924296325
0.0360668805116183
0.041968765077426
0.0312213224455008
0.0496801083434489
0.0308161891746552
0.0489604543534103
0.0246053293302729
0.0524573909107985
0.0369130283189126
0.0402456772811887
0.0323650432289118
0.0487947235338537
0.042059328567571
0.0373755434307767
0.0473482642636419
0.0390125038536993
0.0427720780880136
0.0338973869689821
0.0366934359581191
0.0511121211069162
0.0318363076038134
0.0467431245770485
0.0337092670444919
0.0460110845442676
0.0366760684014232
0.0405802540223353
0.0336704557715596
0.0434270103399214
0.0399191813579368
0.048378663798847
0.0350804196259467
0.0424043328679083
0.0421727895982855
0.0427358617970879
0.0325868861907956
0.0539236559182234
0.039823327156321
0.0656935868151572
0.0348279783147211
0.0492868748508998
0.0367562259796574
0.0414857683336113
0.0303344074332144
0.0507001788681689
0.0370931364309868
0.0520649411889047
0.0487460977582029
0.0500149737790592
0.0361493040911338
0.0384402659308459
0.0572281601305947
0.0350941301508325
0.0567748002692999
0.0316410295399709
0.0479637534262246
0.0383644383873814
0.0562111078772132
0.0399453577382052
0.0442106416714273
0.0563542793343113
0.0514947503977835
0.0371799174149865
0.0458683472666741
0.0438270288137673
0.0435151765706324
0.0465289077136227
0.03913577540425
0.0703738107304018
0.0342368117396957
0.0546341162578288
0.0544906176287263
0.0438809854947682
0.056811428927289
0.0438952401850102
0.0228898152801344
0.0559915943889639
0.0464584929773617
0.0487261131038638
0.0338184159235941
0.0533563401691502
0.0327235441029511
0.0631647064823471
0.0397273993761605
0.0861133240791946
0.0533968683659964
0.0441719724375816
0.0685887913178921
0.039906751231917
0.0558900858266571
0.0339162625395129
0.0433052265777425
0.0470553411840554
0.0622996184927685
0.0465650610565499
0.0635005833688179
0.0380887207214087
0.0587622923199232
0.0502873190329445
0.0508550110334543
0.054025983932409
0.0459208171734203
0.0561296245604147
0.0583041920489132
0.0572581393546861
0.0529994276883011
0.0584123458303068
0.0470666084531385
0.0619065235300296
0.050105065246689
0.0581560383215711
0.0575603846729504
0.0445317279600718
0.0501613850984453
0.057280122831994
0.0496261399809243
0.0574429656898219
0.0598582937425144
0.0582353961863704
0.051301391914135
0.0689796826924119
0.0514973425444445
0.0615720135355823
0.0538828279859874
0.072620276796299
0.0516391556343138
0.0584238181845733
0.0611816974063108
0.0682189732054084
0.0614715737045667
0.0606603306238555
0.068184828236931
0.059487611657071
0.0590652308828979
0.0816244259047259
0.0440262049552106
0.0821150659143733
0.0571460986710259
0.0719873852727288
0.067639931440447
0.0701212431644766
0.064246783878563
0.0713455156619762
0.0738721802357918
0.0787775444069836
0.0702494327818457
0.0760787771787333
0.0778658784595484
0.0896962208391086
0.0824625122886592
0.0791372301016745
0.0822278944228471
0.0767467135241367
0.0974623606665306
0.0620869903927593
0.103687754840064
0.0819458067457681
0.0808049360315134
0.0914525032815899
0.0847732770253991
0.0951110387777984
0.0890313827286269
0.105441818541903
0.0921296459816089
0.104893731665562
0.0890029517479167
0.110507376703068
0.0976114190272189
0.1130442489599
0.103023349353739
0.113049555130509
0.112368293884218
0.116863222661143
0.0994179931364316
0.123618439835509
0.111542893597525
0.158269308322688
0.0993911141082396
0.142036413122849
0.12830085936689
0.135093207771279
0.130147285547042
0.123693143624439
0.13424793481002
0.14093904010959
0.143169373424385
0.141785917845054
0.140103931371177
0.147013166583059
0.154014404307413
0.150409423184948
0.159100106255726
0.155164680551791
0.172495358504672
0.167165736486885
0.17261607226745
0.164615553729216
0.188657137763392
0.17017460522768
0.21476877702099
0.180403769300142
0.189423233634426
0.18591129420495
0.185777265398581
0.180756336908079
0.190474854903673
0.202664732066848
0.206926307193281
0.223163019424459
0.204857234975216
0.224539567456038
0.221520043978886
0.216070991751463
0.221607701306816
0.209855573658564
0.226824010577195
0.241414865693536
0.244650795377334
0.220762412341548
0.246666668194129
0.235440101620374
0.255550569926848
0.25511058789426
0.233229009777511
0.262084565938222
0.262107098550421
0.26580237133406
0.263592568679566
0.276813166270261
0.273014970099579
0.278788476643067
0.283752177917583
0.287009028320529
0.291125453439684
0.294638223206476
0.288218725264226
0.295798653079437
0.309805719851633
0.303750211713062
0.319068443439948
0.312946329530993
0.329068661025244
0.312224890081326
0.343112800666988
0.322289846199687
0.327001234234677
0.332778195075385
0.325423940281366
0.341401253187631
0.338833852556263
0.355851086020917
0.361512564402275
0.36623577571889
0.36510823024089
0.362332795442001
0.374862964969954
0.389154222571226
0.405041051120202
0.391229374789083
0.386279361478089
0.381807983958707
0.402098042381578
0.40800457556019
0.421229812169227
0.432347386806163
0.424851902474592
0.422216942278069
0.427901632920454
0.419776383952498
0.432778633157051
0.427920903920828
0.430806153100726
0.443314548469871
0.451995099208045
0.466706802943409
0.454134824762019
0.467813184425897
0.472063965718064
0.470759495977162
0.480567929919071
0.499212169932186
0.496369915795367
0.48614865082708
0.499096716955257
0.496503443006254
0.521103499097641
0.525963294931615
0.533293614996021
0.521313196522932
0.519312986654229
0.51058792339724
0.534911754107188
0.537823896642367
0.55433229511593
0.544171358843135
0.550379227432885
0.52809518825219
0.568076429238478
0.559623139450125
0.576669249201481
0.544038466646844
0.573020838655064
0.57547137379171
0.621231743483101
0.597892098369778
0.605481190369346
0.589249791168009
0.617241328122558
0.605719946106233
0.598777298938403
0.611317925463954
0.631726982374472
0.643471596570517
0.655471727055097
0.625460294044598
0.679711820771207
0.674278828384033
0.686116493791701
0.663510669124366
0.681602768130397
0.66358956804003
0.699243448344635
0.684968013407564
0.693909781668943
0.677005415958871
0.751795346489418
0.710861487372052
0.734515636006759
0.738325380191956
0.735680162559066
0.709121698715386
0.738870952454599
0.700305644643287
0.763902328907046
0.739376481647083
0.754588315868277
0.752710685499383
0.775526879774703
0.729445816982662
0.793642406874255
0.755995387279966
0.827802895178379
0.808960343131798
0.835377852445353
0.779029356287048
0.859232667438487
0.82396161095545
0.849929148397357
0.804425690454823
0.849399549257064
0.821989708566193
0.86038789201103
0.81460087669865
0.872899407775584
0.842278843481093
0.926715386185746
0.905252601042985
0.924677829345967
0.857533976969653
0.888318222929812
0.863686110013496
0.904901054949683
0.909578116051492
0.906449742438357
0.928488260570923
0.913276442750918
0.877588223274915
0.928836854300175
0.957648699384095
0.934173123510277
0.890781965131043
0.975546575622554
0.913704458656473
1.00403939005325
0.932502990445093
0.989455693346252
0.951496971408492
0.946834444737165
0.917923554019318
0.98875930113386
1.01258275153525
0.970767424042338
0.963907861876537
1.08341716518926
1.00487262242456
1.13638782659431
0.982265916857256
1.04653383062348
1.01770357389446
1.15052362033153
1.05260887752985
1.05296855907577
1.02571002788848
1.0473566013215
1.04959468548536
1.13659496286505
1.03010794337457
1.17276637192792
1.06703968947983
1.13188893134353
1.03431146587892
1.16527264777501
1.06203217272649
1.12269430327778
1.0232344113356
1.14870509060464
1.06056726733921
1.10966854896208
1.16486797373557
1.20776498560325
1.11486759249369
1.09099888287883
1.12798697307755
1.15229456587963
1.1252116891777
1.23736359093719
1.19393439025998
1.20529240223746
1.11109773892698
1.22680842385318
1.17564848327499
1.26023363218756
1.0970540815653
1.26852653006583
1.22385259102681
1.21103722087496
1.19030218399788
1.2195000434025
1.21851963578904
1.27820567332614
1.18682304839404
1.28719333179637
1.14138555517753
1.21352625692665
1.24992089936719
1.27605246961936
1.27846853265657
1.20024058481113
1.20778353619966
1.32333620626136
1.21055851452473
1.36549956881652
1.15536426137058
1.32356101128162
1.15158989141389
1.3274943719309
1.26444669553412
1.42721330711253
1.34806979865256
1.36017414550992
1.14189355416216
1.36437176238648
1.27604676841979
1.29941987289441
1.2849367522272
1.38607676615853
1.41545037764388
1.34852687421444
1.28181148579331
1.43631805941615
1.37327182876154
1.39386727664347
1.35948515168788
1.35494185448697
1.22747225129044
1.43807883941258
1.28853549918396
1.41389416478801
1.38227818433657
1.42997115385409
1.23975258676116
1.43461409027735
1.38209154349087
1.42982397433695
1.40337367107054
1.43810927335291
1.30978779946398
1.46573093235922
1.24958091744576
1.45605530669856
1.35061176869761
1.54334411439287
1.42793137177521
1.63166655175
1.27955608264482
1.43692363396652
1.32152092917013
1.49971056096875
1.333215112706
1.43151004615142
1.41390875538372
1.42543456314531
1.41297690172127
1.49642931409989
1.30828739799309
1.40135380377656
1.29936448187825
1.50618160953117
1.41265486921736
1.52164945757847
1.49377572509622
1.56193400109682
1.37570347757012
1.62363745018197
1.34584495863566
1.34782222969978
1.31231319041836
1.51216306948603
1.54285700863313
1.45984269500986
1.46639025988939
1.48145982240973
1.5415091716255
1.44053387817851
1.57508025905266
1.50140054014461
1.35709811568447
1.38204045783198
1.30249852630277
1.51298211289661
1.49741245655767
1.52864604884866
1.3696604707918
1.7284164040336
1.5194410110831
1.73411528153119
1.40227444262045
1.3850085454928
1.53003529390639
1.38713201492675
1.39924342729495
1.42183398507502
1.43999022743863
1.45892855397568
1.38695542361284
1.53697668992808
1.43718973079239
1.57017797428107
1.56317969449556
1.44631313046285
1.47682501858469
1.44926900109179
1.39534865883751
1.66101633499732
1.43752648916262
1.54274514467156
1.36174717436964
1.41597815335009
1.44320153523488
1.55612672754977
1.59308093415367
1.46539519644275
1.4353609306629
1.50157609649043
1.47308944154685
1.40740303695062
1.48745857459703
1.48764286802928
1.48957956076146
1.45858610612702
1.41221500557112
1.58749061089806
1.47325658549645
1.62207652195723
1.39275472362856
1.54419413905325
1.46607464962558
1.58161364541276
1.4073242673883
1.46375078539779
1.46832803816842
1.5679240757868
1.43655840351495
1.5205586244448
1.47876133811818
1.61020360303129
1.40354994187466
1.51890469754924
1.36569273297637
1.57040931568562
1.5045749830443
1.55291552067733
1.4248228467251
1.54890254762487
1.45464993662598
1.48786883896904
1.45634964800397
1.60137085986044
1.51298419779708
1.50421927111385
1.45057788941928
1.45013339694251
1.39447567686275
1.58973264848645
1.45137790233337
1.44584386761633
1.43364231499334
1.41443469011949
1.44445714683679
1.5144287619537
1.38841562078644
1.44251163955652
1.49700253536504
1.58800038921865
1.35209824259124
1.42878284970672
1.41764232946767
1.45992171282852
1.33845127287437
1.31769070535963
1.42526462839159
1.52574817730916
1.48882149918928
1.43175175207228
1.44915800060496
1.43666636222657
1.36598300195298
1.49211529520969
1.41775102236987
1.43456739734865
1.34829160288324
1.40463585501304
1.37505517002725
1.50330198012102
1.40966584004516
1.41352386781682
1.33014753170203
1.46144940652031
1.42609787752701
1.54668935403159
1.39138939888503
1.45905556966854
1.39944688420639
1.41851787173013
1.44134609303588
1.40259279560294
1.31905930267086
1.29687992836403
1.32648735855146
1.37256057389919
1.33699542049688
1.31609266767567
1.39188857968222
1.33655861408938
1.30882625835409
1.36399500049666
1.30872751465378
1.45853090643718
1.30964265203933
1.33312405426427
1.30303590240994
1.33987917449139
1.37299600694378
1.53614737246484
1.24364737783091
1.39133166016019
1.38133940016803
1.26588359068965
1.29258532173648
1.35895506705967
1.34459822984808
1.31901282780052
1.24682246160221
1.31807237310372
1.31309169978097
1.29477486979358
1.27245921292794
1.30485430818376
1.23517739949623
1.26054972800648
1.23806779962296
1.25509260747656
1.23755308324712
1.26699110871712
1.17118195077336
1.2670649586879
1.17725067674524
1.23563531047256
1.20281764299263
1.21532797884836
1.21791962782193
1.27128756911778
1.148718180116
1.19630185728481
1.15574716050642
1.20014700876445
1.12889551246745
1.25489355968143
1.2015622674049
1.18398313991142
1.14889297602415
1.16438275196612
1.1243148814705
1.14135038555197
1.17071988535926
1.11318051392079
1.12322498054236
1.16626228657464
1.11388994063333
1.11649054195547
1.10632543499139
1.12467773943044
1.06356025004307
1.11382481006257
1.14144345202001
1.12941438901578
1.06302699608644
1.09911738714055
1.05776282932453
1.06247798268262
1.07199288809165
1.05164519762347
1.01387572588153
1.02413361453584
1.04609936744968
1.04324563947196
1.04868764372197
1.04233799833146
1.00680007083378
1.01369134089558
0.992696850689991
1.0291185783288
0.981351926291353
1.02143472795749
0.981915114480368
0.976674171804874
0.957078630368362
1.04319817865182
0.969707745558846
1.00780869020413
0.964194927319368
0.98185296026319
0.950997828276339
0.952867055196959
0.945779527522829
0.961430977459161
0.942515120838578
0.900762835111463
0.923802151180762
0.939548325208475
0.921342280893022
0.929051162078041
0.895423723414018
0.916234697230275
0.902548725637125
0.901174809683869
0.874909587842324
0.879503473885635
0.867210646517459
0.891810838939285
0.854811284582708
0.870503914296688
0.865594270869582
0.87730516486942
0.852596703861425
0.870680435618194
0.864061683231541
0.864130980342486
0.821120229143348
0.826158270308275
0.837291629964849
0.851158724337074
0.814201047610502
0.821991884523155
0.817020312352948
0.806769847923553
0.810026153475008
0.820157553865842
0.796347245003644
0.797184037731812
0.787520343261601
0.799235106481145
0.769152368048135
0.785092355485243
0.772166303264851
0.783157236140627
0.763401664459671
0.789645132190998
0.732214064284149
0.766907493824058
0.748626403986789
0.748519861318267
0.742496421621441
0.760892028221825
0.732061998188348
0.750288430682295
0.707889912777542
0.735124697661649
0.738479964067539
0.724257016016361
0.692419603484511
0.722428004689593
0.712097814748639
0.730681257823365
0.687040462097656
0.710580397085037
0.694778468375628
0.710343946467406
0.660459083712444
0.707972840103916
0.666137829259157
0.681698244023488
0.678715655386414
0.687850054732263
0.66377287978704
0.678091457732872
0.66038913413708
0.671234815118493
0.644995814428613
0.668050033893769
0.641461204026023
0.648767876190611
0.633392841520794
0.655398165393592
0.625865037106305
0.626842462833983
0.627557570944924
0.643339358213001
0.608728327273014
0.609886684511885
0.600185901205395
0.617710834917715
0.59737013507871
0.616131111195294
0.608372336101808
0.606002856314321
0.588714124033215
0.594892849584862
0.582604535027233
0.592808410581273
0.585756821741883
0.591200860362567
0.573964209645962
0.584852230746226
0.570107425788285
0.582658892796743
0.567000136636978
0.578600236509426
0.549047154661438
0.568633955283943
0.545895806355993
0.562106520037789
0.549819100305249
0.553389443246853
0.538662765182997
0.544810298979981
0.532299432759202
0.541474762129979
0.531008534882002
0.54707409982245
0.52074420598394
0.521963149768432
0.516921703029633
0.531851081216055
0.522130424626586
0.517125523767222
0.505525968901275
0.528238193578143
0.504354328063758
0.515518137532872
0.499251639768352
0.5088234072761
0.501409338763317
0.514393223901171
0.504586251319732
0.49951623739059
0.492958607516216
0.504670406282192
0.489258414321054
0.5030217864149
0.489486119999765
0.492887098302623
0.481913304686346
0.493491613591724
0.485238821881544
0.486815253485451
0.472900015391062
0.481793361862338
0.482469505196196
0.486645951052878
0.478756761303007
0.478420072072333
0.477235631612942
0.485619887190923
0.478753886765765
0.500126951888884
0.484596079639342
0.485548849326151
0.479651512903168
0.485427881109254
0.483004296610462
0.498207676640674
0.480157798658958
0.486583442767362
0.478715303303471
0.492726916755186
0.487921233000013
0.491368124056784
0.478208304938628
0.498016636776069
0.487778482551426
0.513344730899266
0.495486677694983
0.506747965091468
0.502948301113891
0.505950483251439
0.493158420517037
0.525939564526573
0.507093632947076
0.523004936511843
0.514151404214838
0.529037344962977
0.526351887765667
0.535011878182417
0.51583915502494
0.53513063422461
0.529612670797888
0.530662457011943
0.526391507423233
0.551989506797095
0.541635640566326
0.551233073305441
0.553778592628747
0.55382153664455
0.537794684955686
0.550170661895073
0.55977274004467
0.572507827626908
0.556937673864482
0.576071118919725
0.569644651630942
0.570141737450728
0.583406042851813
0.595016522519624
0.574750638093497
0.581284411685494
0.594641659590325
0.608226286382667
0.593966931165225
0.604540855276021
0.595450917648729
0.612085716105549
0.626156063114508
0.641779899439666
0.620218495556546
0.641394768128712
0.627737655614531
0.644342955123208
0.628833800449021
0.648633120648969
0.631999547427557
0.637798541730912
0.643635624404664
0.64995290340959
0.63627209448425
0.650033120345943
0.631277088949657
0.64714460026217
0.638978272551774
0.643071144642653
0.63825775710539
0.651269631630099
0.636537250474082
0.635921536673705
0.62855484640524
0.641630567390301
0.631696862051293
0.647745210245369
0.621793098664654
0.627575988226449
0.636598649508649
0.639408040785808
0.625558346160263
0.631373348882852
0.629962497118994
0.650205596228064
0.634512431910429
0.639719821101434
0.619450307110344
0.639082978953492
0.623927524951844
0.641426830663842
0.623041340817818
0.64734582131747
0.639545036294763
0.650616152084747
0.63103814715009
0.628913273280489
0.623979165916587
0.63485432751138
0.631585288025741
0.635062537894669
0.628147509119221
0.636032505877276
0.626624866767654
0.640038023408683
0.621690907851948
0.637267194428246
0.629246749617304
0.635456301472997
0.620761114698957
0.630690808221473
0.621795482280525
0.628276208669458
0.620674797302289
0.618624982303527
0.61033396224264
0.624619921550648
0.617545770371386
0.607745344113027
0.600449162779545
0.608085705707029
0.608768313601588
0.602236401803312
0.594790636432058
0.595328309373557
0.582172656202054
0.600678004323872
0.581694529923953
0.593755762342243
0.585381178607122
0.58473537682399
0.55749013413125
0.573044433425447
0.561603473140214
0.564116698807138
0.542147512189724
0.556902052072675
0.553260750036095
0.548284300099649
0.536672177412736
0.537860640955073
0.522245581579324
0.528972972942623
0.521580648054865
0.52932072185835
0.518699096874001
0.532809291409971
0.513507525389005
0.505785656193427
0.510600368415906
0.502642276089808
0.491514681763534
0.496461616768661
0.491174229401074
0.495448035678394
0.485941215646564
0.486349141023506
0.480763719330966
0.475458412740453
0.468687891962786
0.476279544150034
0.472218328088106
0.476257015856628
0.459541046040716
0.46805159234808
0.460714145245687
0.464628322672166
0.45215552885188
0.453212798628541
0.44763967265443
0.446048952715851
0.445601414710701
0.45293281518479
0.440090361412375
0.444985446666511
0.432246530840819
0.435937187224345
0.428791035190256
0.438231027949782
0.429465422105782
0.428339035871128
0.421036526428891
0.430593997791125
0.42468438167205
0.428641341877198
0.418397415025056
0.42401352754862
0.419290296120332
0.421195778989843
0.41319736658409
0.413845633476886
0.408631205623286
0.416365877609534
0.412448884947242
0.4116274350732
0.403683733334969
0.413923273769269
0.404424050302213
0.407397677793697
0.400003260439927
0.400887285144619
0.393924643350816
0.396286028685832
0.395688499264738
0.402210804704219
0.39377539056281
0.391078014945315
0.391910035269251
0.389338844696935
0.389911985675778
0.397764326752712
0.382150274783212
0.395712995567662
0.384170843916661
0.381371620061266
0.38379408867519
0.388068886153394
0.376103703640247
0.377818834623013
0.376431787456176
0.383769834104515
0.378402331298213
0.37963964055234
0.376038660884122
0.376605931463792
0.372180452987125
0.371138028552008
0.369736056005047
0.368473610528988
0.367375420784051
0.368932458406498
0.363609485612763
0.361533225272114
0.359166632277412
0.358932223488203
0.366610812555584
0.368667845110516
0.361079685454502
0.362049728581131
0.361252038934334
0.367896784707738
0.356131431718445
0.358191406549192
0.356208872356807
0.358118368926327
0.351349915113183
0.354552306606905
0.355292217294536
0.35819306734728
0.348417757576728
0.352785909352919
0.351084286505899
0.35905438459436
0.356714481400793
0.353573714978961
0.346449665938845
0.348738118254772
0.343833611767694
0.348538583214504
0.346745515765098
0.350238299904365
0.351405477977619
0.349015265192895
0.345279063712106
0.339784570434912
0.342894130108578
0.344697511970661
0.337875566098647
0.34390981148241
0.337611453057699
0.343139618952026
0.338880313969301
0.342892462762925
0.343752701719347
0.341756099119462
0.338382287766721
0.339912471547981
0.336127953058515
0.33258692432966
0.33597677668138
0.34455480072826
0.334523138243644
0.336650218900005
0.336235296132022
0.334389245580907
0.333422374177825
0.337862568159957
0.333173059289819
0.330940415771738
0.32287326481062
0.329256318353379
0.32914442463768
0.328699936386118
0.325904040297889
0.326848462474044
0.327852184125443
0.331911973017981
0.32368806464574
0.329630782868591
0.327073474752177
0.326055101752967
0.323949941867339
0.324389345205118
0.321085218500511
0.319956243221583
0.31781463131622
0.320499327377454
0.319465950036306
0.318169642314091
0.31733401969324
0.31713248921838
0.316173021189874
0.319324985258183
0.316005602868051
0.315194533686734
0.311557913159373
0.311481322470274
0.309835690098376
0.313176863716387
0.310908463793313
0.315308078408574
0.311218833176499
0.311553079075365
0.308211266649831
0.307817085389671
0.310532408690935
0.304686963801241
0.300443012675306
0.306399949051442
0.304967610748551
0.30705325014483
0.297717131418997
0.302704505256622
0.303625180000631
0.301648163158878
0.303631016959265
0.300074625601849
0.29836626029988
0.299115637431367
0.294891737885749
0.296792457119456
0.29211229697076
0.296638302876277
0.294404463815478
0.297127294640286
0.293660996266976
0.289969523539724
0.288737272091305
0.288666226338165
0.289457700600772
0.288509736576003
0.282102911758235
0.288372657884006
0.285230019031838
0.284382180649495
0.279080765864537
0.281429604945023
0.279534463921836
0.281548703781081
0.281674814863413
0.275174429514985
0.273912181072845
0.276946165446159
0.278295254399587
0.277095983222669
0.270499675566592
0.275664459313029
0.272460632790781
0.273370397402686
0.268811123895721
0.268294460524167
0.266984324679732
0.268354897706007
0.265528466044356
0.267380803731536
0.26334484846661
0.26350440606918
0.263431150124033
0.265208164729456
0.259932007785772
0.263305206507251
0.2604612066649
0.258750760575143
0.261657227289342
0.261149863313695
0.258006282846997
0.257342489867122
0.255204660457352
0.253503298174838
0.255918337483113
0.255337200106982
0.254232906886144
0.252143330134627
0.251031900771936
0.253382645931762
0.250285583302303
0.247631150718462
0.244423121840857
0.244169029832368
0.247126733885787
0.249499794562846
0.248915365337034
0.247740234625515
0.239244292221576
0.244003209183231
0.2446222465264
0.244027571720864
0.242589809274753
0.241723854242732
0.242073460430744
0.242914385968011
0.239899550823293
0.23703937702537
0.234255868688659
0.238035894520309
0.23972031251289
0.2377276877218
0.232428890036119
0.232124782591155
0.233520036241309
0.235605233505715
0.232656827332536
0.232927819095446
0.232450218825269
0.229908289348067
0.232742917148528
0.232345184515398
0.227739380331527
0.229976021507446
0.228492617353662
0.226263881860069
0.224512043495896
0.22756752837496
0.226043897177668
0.227689619443422
0.226992817072269
0.225033793592029
0.221002063845407
0.221169107578686
0.222651374886077
0.228633831586506
0.226127937633739
0.220791172528648
0.225493323681835
0.222082603389373
0.219109582999559
0.22308281665775
0.224530218732226
0.222651781512357
0.224297526611891
0.222510627946154
0.21866808415241
0.217904162271488
0.21638446387746
0.219017690595913
0.216185528274616
0.217032656076427
0.213656760503731
0.215279996191555
0.217988039517196
0.218240093381639
0.217676149372592
0.216275595974339
0.212467837495899
0.213250892749977
0.216480767771159
0.212892511918682
0.214543468831846
0.212034062631311
0.214862113191262
0.213233879945682
0.211271526470241
0.208416733791003
0.209843860744634
0.20811294080806
0.208503062062764
0.207874020509906
0.208526114866064
0.205863934838021
0.211312226903967
0.209105242099984
0.204056375012988
0.204419794726746
0.205268614951132
0.204561115367664
0.204596143088153
0.208523308620371
0.20495023458
0.204940955323871
0.204678580420004
0.205288121731243
0.20074057257805
0.200418445342074
0.201426503787094
0.199436588100845
0.20259226048272
0.204716747233383
0.203048946346699
0.199943395959187
0.199207727958848
0.198084282480067
0.200854471877858
0.20102088205646
0.198900148272474
0.198437707504384
0.200045763268419
0.203354235008199
0.198412152778384
0.195386222214287
0.198847412244606
0.19530819217655
0.196508994684156
0.19568575773357
0.196114388201358
0.197676618414883
0.195955386581176
0.195216232428256
0.194754921617469
0.194862514784547
0.196612252085901
0.195033984713574
0.193934850792634
0.191018272559662
0.191872929860978
0.190203284830038
0.197679882620785
0.191201087343536
0.190956717077548
0.191104181440536
0.193262239590671
0.190638752848069
0.187108724772201
0.186913102384668
0.187581181749503
0.188356983037918
0.185323672348898
0.184585574746995
0.187046680380184
0.185637783410749
0.187806487640179
0.186298941961207
0.186212875581865
0.181003389927758
0.183254910662692
0.18266098904969
0.180365957149112
0.180259374447581
0.180974128257731
0.179068616695777
0.179579828303973
0.17567276593297
0.177384026758394
0.17789448331383
0.179339470177995
0.174241266169693
0.175000064793061
0.175828087663962
0.176232260224769
0.17200898859448
0.171578809318183
0.169195525252543
0.173989586203775
0.171932129883892
0.172869644298804
0.170020979054181
0.171513980835934
0.170122886699785
0.167504536045017
0.16832781761668
0.170424264396671
0.16960966173838
0.166722951063707
0.168539023810388
0.169559829359529
0.166452210866625
0.168295309638403
0.162779984553753
0.167739142643683
0.161688923888084
0.162630233882471
0.16248988682243
0.162222099333575
0.160650992325056
0.161180977519165
0.159578727361095
0.160579477069894
0.158660051755408
0.156762490483222
0.158359566133885
0.159209750701527
0.157205330484722
0.155930264617861
0.155738028677375
0.158553761207666
0.153618536888031
0.156765722453121
0.152769541840411
0.151414778277337
0.151764556719162
0.152973657536966
0.151979672438259
0.152624357984103
0.150304165487574
0.154138602746708
0.14847532936785
0.15412606967522
0.148486198244099
0.14696572578474
0.146552125603842
0.149594416274184
0.14219519433645
0.148592022518519
0.146916926136748
0.144519540766782
0.141594880933629
0.145215293968035
0.141734315363431
0.146285877247006
0.142496114125616
0.143451374526291
0.142322826982969
0.139035797955407
0.141772160972548
0.143955950398711
0.142604714598161
0.141250615333572
0.136824987540829
0.140900529011363
0.139083779209984
0.140416165482864
0.135699829867108
0.137722780359595
0.137768876756708
0.139249662343495
0.135689185531657
0.136891891354705
0.13511872066498
0.136344490816851
0.132743854547253
0.136450982153226
0.133873578962171
0.136105094671852
0.134711328379271
0.133342752737335
0.134015108398592
0.138134695286128
0.132979503236574
0.135735506030886
0.130465938694076
0.134386301228141
0.128215153906303
0.134442159420806
0.127898474901187
0.135093539399073
0.126068170539715
0.133411688063386
0.1257209591468
0.131133111063635
0.124969666353338
0.132332517910566
0.134123228011745
0.133805125439122
0.122841448942095
0.123925591766485
0.120060878381742
0.13372670879437
0.121580755632676
0.128104163261039
0.12175880637454
0.12666232256642
0.112173964442853
0.129805056685059
0.121384012417975
0.128556290636053
0.122860974392051
0.125265684013247
0.117520880137587
0.126002337939976
0.119964399754153
0.130762893891524
0.113531129501564
0.128898148434631
0.118987250904324
0.126285740032265
0.113140277023415
0.128671370296643
0.110055073017659
0.129569283938623
0.109371690538454
0.126578921592966
0.110328359373838
0.124109982173834
0.109106035627488
0.123762857780625
0.104490741552305
0.128214014808604
0.111678903935506
0.135441720115178
0.107880307448978
0.127750088006253
0.107933293905054
0.11995508422579
0.108317284456614
0.130113780139832
0.116467035595465
0.120855895001091
0.109662740803217
0.120349603943408
0.119347253971421
0.119150719517041
0.127348226477134
0.108564383540018
0.127505529704317
0.103106923726396
0.135866537584338
0.0958950491407314
0.136732935950947
0.0956351851546415
0.135965818487112
0.0950226872679164
0.13648416834383
0.0946991836855896
0.129116498155159
0.106264963499147
0.124628473849257
0.110586539515494
0.119624033750864
0.118377285395164
0.117182087843479
0.116095042333596
0.116323716386292
0.113577839299322
0.116002903016721
0.11287793607254
0.120889261406028
0.111775713464349
0.117788821847834
0.109594927999578
0.116406197563015
0.112888219458583
0.116436341263697
0.114566400172309
0.117613677310178
0.113401285793031
0.114362125208945
0.115321475218335
0.117527436447516
0.111851543656017
0.117159771552787
0.11424600354368
0.114494343052099
0.111545747599593
0.115616914859138
0.111425095064887
0.112583079457716
0.11459777149424
0.115029388332507
0.114924803469925
0.115219461890113
0.11232981442279
0.115984091797687
0.112219292088115
0.115845183176692
0.109800296007059
0.11735903553532
0.113535908743917
0.116782065175192
0.114462054949264
0.116060550674414
0.115064641463489
0.114242129782771
0.113651322148901
0.11323999336528
0.114339122640855
0.114447921244619
0.112682176971964
0.113942714757298
0.11355491459355
0.115391071789866
0.113435072601184
0.115957051580053
0.115159528263135
0.11583214865504
0.110898485289617
0.116015563453929
0.111616121645965
0.119525120277837
0.114524431728288
0.112954705315617
0.116754783430061
0.114834409831175
0.112532898041659
0.115030397335326
0.113829234058111
0.117124094694834
0.113784299706767
0.11466853618929
0.116545830636409
0.115708653801163
0.114640433923777
0.11232121690218
0.114761667848291
0.11695152213271
0.111282776792831
0.116269223623811
0.113898354655637
0.119135941010853
0.117347477618536
0.11543880823909
0.11569222825091
0.11671768615298
0.116050651433291
0.114151291026693
0.114011272359258
0.114118104920282
0.115979278131825
0.114482929005917
0.116379136882895
0.115409630871451
0.116280922522356
0.116556930379817
0.116400641034285
0.117197416294049
0.116925790155428
0.118512302477567
0.118719348882222
0.118156988252879
0.117247488815665
0.118047361214751
0.117704901226152
0.11946234499037
0.11734013898659
0.118218945920136
0.116552019468875
0.119773685964242
0.117880439232413
0.119651584807926
0.121478467805713
0.120526362062146
0.120529603530995
0.119113039333171
0.118631911867976
0.120276325893544
0.118392740314923
0.121482860415832
0.119324093215989
0.120720885439872
0.11961511006301
0.120207498017195
0.119815635878865
0.121045592095878
0.120528992771754
0.119300665374451
0.12250630974352
0.120979444357125
0.122321707406674
0.119828332327993
0.123154040631432
0.119791480690077
0.121945554842786
0.12114975653681
0.123323042675783
0.120566470586631
0.122451561755292
0.124144359011383
0.12335802285937
0.12356336982396
0.123012503653135
0.121822996296128
0.122757918662324
0.12139607739362
0.124968875530709
0.122390338886383
0.123438745992075
0.120936540926173
0.124631628159309
0.124184526934961
0.126491358681313
0.123837555584036
0.126455824713512
0.125067011475339
0.127646801420162
0.127730331421286
0.127752792938966
0.126308759964596
0.126279435027054
0.124555349562559
0.12538564310059
0.12689205953218
0.12800871831527
0.128272917151035
0.126354198614239
0.129159822345014
0.12595661387692
0.125917779764396
0.124771475750376
0.126380842788617
0.129001211785625
0.125292147493946
0.12333495456169
0.127706895070452
0.125894406521261
0.128289990348828
0.128302437104616
0.123734028486574
0.124999470622209
0.125883656667997
0.12478728063671
0.125799472784452
0.125873240041851
0.124839374363859
0.125566702540138
0.12564165291951
0.124723436304619
0.124695877841091
0.122555332657767
0.122279809438034
0.122463727025791
0.123072747109631
0.122821925996808
0.122736940157643
0.124095450311168
0.123598194560921
0.12467162815228
0.120862749614458
0.122693878302224
0.121679875635053
0.120358723432944
0.122340349376124
0.124159254666146
0.12244026790096
0.122075170681997
0.123514035808981
0.122468372989936
0.122705591931334
0.122942189740292
0.120708759712509
0.12475199967008
0.12030982392543
0.121176541087728
0.122253091316949
0.120627852638217
0.120110093785196
0.120372088901877
0.119905279650948
0.118099599946969
0.120056917034199
0.120531633228933
0.119698737753375
0.120188053862812
0.117800838919744
0.119446984806907
0.118523773672658
0.121582400616033
0.116845742094011
0.118467373510298
0.118969981313455
0.116974163290542
0.116609981569555
0.119308560189672
0.120317150352802
0.118374336766005
0.118155655865054
0.119345766276439
0.117308558132276
0.118651893516739
0.117898246317395
0.120014150594146
0.114407354072812
0.114478465438802
0.1200913780129
0.116135377183088
0.114337141736033
0.116781201777775
0.117502761305199
0.117481122335517
0.117107543083675
0.118326288386886
0.115989782325684
0.117467192938558
0.116049525776884
0.11618332262963
0.113294061154853
0.116996231684767
0.116588095682021
0.115750629785004
0.114155407980819
0.119457552884642
0.115729312274144
0.115131006885835
0.117042899493998
0.114907162887788
0.116729732741958
0.114842441642526
0.115439199293728
0.114719402378871
0.113245701575377
0.11470127516205
0.112575190693382
0.114029465832738
0.112087071287417
0.114442482721002
0.112153501085077
0.115664088896984
0.112502385469004
0.11368792236332
0.112248904572789
0.111794861857712
0.11369675844799
0.112657087781414
0.112658859711812
0.11126075297445
0.112863454318574
0.114255137450459
0.110111234202244
0.110382057783314
0.109330649590065
0.108725337081185
0.108883312949682
0.110321871677885
0.110344117775266
0.108095262780606
0.107615622026776
0.108924008644875
0.105772271869056
0.108000095948704
0.108164096159221
0.10606402415225
0.105637402314381
0.107417427516477
0.106128788595231
0.105984539719514
0.106572470079536
0.105283594489793
0.102495942742829
0.103613712508221
0.102654513990208
0.105256032808336
0.103626358525601
0.105829358887433
0.101247923541361
0.104344064126997
0.0984414347170698
0.10161926072729
0.101907769174042
0.10304752996187
0.100703020601953
0.101569148429408
0.0994703737429291
0.101336180625249
0.0947109650338475
0.0985303284611535
0.0957969748470219
0.0974032809325055
0.0956998580143391
0.101206215809884
0.0947690956530219
0.0993417294236734
0.0968716886617716
0.0968480005402121
0.0937712616338554
0.0988331259246979
0.0942642941273586
0.096517386036156
0.0931199244017966
0.0977602311239917
0.0967911439053597
0.0943048205450654
0.0964035400088504
0.0938904087987216
0.0934173521200682
0.0907917067776104
0.0953012843802508
0.0929397566057185
0.0952601562686872
0.0917586107035786
0.0942665301739021
0.0944001761977239
0.0930185872389656
0.0924329778600267
0.0927340084792077
0.0932985804652696
0.0924501421095447
0.0931218448503768
0.090861813991751
0.092692771328344
0.0926470967960819
0.092482215797246
0.0925654788783846
0.0911242112246697
0.0902697058554122
0.0916695360439402
0.0923677448034842
0.0899791085895363
0.0936219026004228
0.0911377387758102
0.0912492833029435
0.0899440276130884
0.0898110673529485
0.0907866645190322
0.0895557127945326
0.0912376751500372
0.0897645829295014
0.0910557969175991
0.0927894867815324
0.0915531277926285
0.0883401741238493
0.0883096980597891
0.089887430973708
0.0869521768461377
0.0876855002612927
0.0885839331992011
0.0873347858972068
0.0884924863808775
0.0889580418976639
0.088473412323168
0.0890036409897466
0.0861544275763147
0.0904201308203371
0.0954927618800037
0.0824785353574033
0.0920206496603279
0.0839323223760629
0.0886801132341348
0.0849829738094501
0.0882341260868403
0.0845413012848054
0.0874292355003742
0.0842007355646253
0.0878186039010517
0.084423101909756
0.0863547409422664
0.0834686564096031
0.086319002033198
0.0858659713393788
0.0888842614183029
0.0815426588542607
0.0871206562741501
0.0825194186506415
0.085002649898773
0.0905014349640766
0.0871699803540655
0.0839196644920323
0.0918292751569667
0.0765093879784043
0.0953172274333498
0.0806746072828304
0.085922786885429
0.0832231656150833
0.0834423735775897
0.0824394596195927
0.0865141710234628
0.0845034018458745
0.0877328599938769
0.0886699513913749
0.0832020828199563
0.0868088053481459
0.083614276328366
0.0847654643454612
0.0837234107470109
0.0842605152436965
0.0834923021671725
0.0838209172069371
0.0848922556226935
0.0835567325358176
0.0878832626380645
0.0832102808828067
0.0839470142064479
0.0860052871594559
0.086880549386758
0.0850182664276675
0.0832510237530127
0.0830415726805662
0.0838241417739575
0.0824347526994678
0.0846982941770441
0.0936904065353368
0.0781140640305099
0.0885182638578086
0.0809011181000073
0.0858565063789743
0.0836085944393565
0.084121251012439
0.084436194307649
0.0839801999505914
0.0831229794345122
0.0850439122226656
0.0851662312820741
0.0841985421070845
0.0839638964069111
0.0834904030926842
0.0857375087168922
0.0824843272828412
0.083317067025869
0.0805767918330569
0.0877341521108613
0.0792930042120553
0.0905737124793634
0.0871405332561628
0.0837503451071663
0.0868029667086989
0.0806346257680955
0.0854971109191682
0.0821300765839057
0.0859570455657326
0.0815864399127749
0.0864839214045695
0.0804318325711781
0.0874904647391835
0.0835839237924053
0.0859508786034853
0.0792136585052583
0.0854032939867883
0.0813395668650869
0.0863701836090569
0.0815981700084355
0.089950182245949
0.0821729755762783
0.0879400568959781
0.0806422820447221
0.090279073166539
0.0813504258874115
0.0898213621353181
0.0794860165145344
0.0990101623018407
0.0915179862360189
0.0803511185284329
0.0938823922125691
0.0825733663639446
0.0886961216190209
0.0851731006264016
0.0880950942019094
0.0882017683649572
0.0854263269997101
0.0854383250522103
0.0888135571532077
0.0838605706159079
0.087407424597584
0.0844949449948117
0.0886730444929872
0.0972634520342971
0.0860476203427069
0.090937543984061
0.0893791254685367
0.0804950294795303
0.10169441161341
0.0836214742201509
0.0940519008601085
0.087887551462212
0.0875267037236098
0.0887063763960026
0.0896373802598118
0.088517144758027
0.0918505764935457
0.0909391787289767
0.0876409421128044
0.0908184018308688
0.0880862605635977
0.0914328928961314
0.0896298557755398
0.0928026652214346
0.0944638962998559
0.0888170027943337
0.0946272218032058
0.0945248749944149
0.0906364844426744
0.0936240988689185
0.0947869062482304
0.0949818767279326
0.0953169159127833
0.100776276780568
0.0943689928439614
0.0974327959226226
0.100333613666453
0.0936676323732558
0.0952084815183573
0.0945221321905288
0.0978754846235603
0.0962985034590276
0.0903891112403539
0.115858525953892
0.0879315274065949
0.11105971221415
0.0906835036450818
0.103674813392679
0.0897146645709307
0.104886554693133
0.0929339119333738
0.106879861876686
0.0937929730039884
0.101781062016679
0.101241483832606
0.100317998308404
0.10377000532228
0.0981624699469855
0.105048600008088
0.10364323159532
0.101414036172527
0.100437097082225
0.109857936762101
0.0967300601788604
0.122615978217745
0.105200538221447
0.103000321525154
0.111634396368737
0.102559572084663
0.123637540401903
0.103880430022373
0.109197622517121
0.108112676271174
0.107153692992075
0.113624073893168
0.1024094857338
0.123243374123818
0.112506104381964
0.109564408860245
0.117671638250996
0.108077728163704
0.125758040340406
0.116265959512528
0.113771187816969
0.114959224029786
0.119710849021706
0.115333263636699
0.127850607374975
0.129899537856784
0.111786930430789
0.140897812368886
0.116648189789693
0.136428897176843
0.118622383218023
0.132840732215975
0.124140805197132
0.140100342836255
0.121791924639611
0.134100137071593
0.126769142670403
0.152411942879212
0.126102595216574
0.143405167865932
0.134752034608779
0.138971007918113
0.148484133045712
0.169887422038041
0.143159225313799
0.154363220224928
0.143511656941531
0.162287110322622
0.151309654744267
0.155075538956133
0.155224092181379
0.155790477311599
0.159288736597046
0.161058537866675
0.16418844610092
0.163937035270807
0.160444525597845
0.172174969509922
0.16168236917918
0.188771094016125
0.172807863201549
0.197091799852882
0.172837774449033
0.187272631228754
0.178717592101191
0.181840881841016
0.183524749063311
0.184714383711308
0.193099000042556
0.189835555048002
0.192724665360628
0.195362724825825
0.197893822924221
0.213255634253479
0.195553044537147
0.224724151675964
0.199562355434955
0.224183346651924
0.190508047247141
0.290136022291555
0.23254356362767
0.228666143804987
0.251645028317332
0.232487486511756
0.288662296642667
0.259558694636736
0.267259799770634
0.27336258283104
0.277754454940464
0.288746924903656
0.298578873820539
0.30378841990192
0.315383427240573
0.32090464374222
0.322081401934677
0.327453745505713
0.367489504570353
0.353946155909334
0.370908326121639
0.362143324514913
0.386669605301633
0.397812471399901
0.395157236173747
0.401666242446364
0.421798904504866
0.400432367375165
0.478689851207255
0.438257872941138
0.459662216779286
0.45499388611756
0.480671956908997
0.476171841291316
0.498471902614073
0.524226181029027
0.498601134862194
0.532299362852572
0.520959883629665
0.5506308885682
0.538945529631658
0.571963702918914
0.574017951100667
0.57341850831704
0.584199062618328
0.587162564176722
0.597670122562182
0.604616669657177
0.61755590515042
0.618652937240207
0.634764214119308
0.676603408546125
0.740361632619007
0.670039046900545
0.613264987067662
0.65022860245795
0.624708805001709
0.662535720628026
0.642331408400586
0.664798467698083
0.669077629081223
0.646351515100368
0.659617308657902
0.658550561860684
0.666568167339808
0.656777329429418
0.666829436109031
0.658363819624095
0.664471338423523
0.671747088597055
0.616214348648754
0.751154971790897
0.657942895517188
0.655473486038118
0.64719216883863
0.657668303557417
0.652039564994113
0.661018640490388
0.638021033391623
0.684986145485073
0.646418072297667
0.642316507049573
0.619690571825148
0.630729793095139
0.662916344484986
0.620136074481555
0.605282618133507
0.598558281728121
0.593224169716654
0.592552725716857
0.570934173801211
0.633397514805923
0.583729674853978
0.567577352106491
0.564705901364515
0.55414889368089
0.544698212566893
0.542943229169639
0.538951533916235
0.542621907299958
0.522653059347766
0.531348830027921
0.526473460084025
0.518498794074563
0.518653692399405
0.517766579383052
0.511249970839008
0.500387462753364
0.508559149766664
0.508092242200512
0.500373578523641
0.496825538152016
0.489681700558258
0.488893203545894
0.493415540642263
0.490589996684162
0.485672660247409
0.483067193002176
0.486981277027616
0.481907832440224
0.485926425861617
0.48080387403136
0.47861776549916
0.478240586194895
0.480643818299067
0.478935365442672
0.476741538735286
0.474373771311437
0.473161748296701
0.465432125755671
0.47008646328267
0.461607146741686
0.464778339870663
0.456954192827219
0.470254655982259
0.488678659124298
0.447892690119247
0.471326088547739
0.456602819184121
0.461554804081525
0.449430042099577
0.465926101050408
0.47401122750658
0.450517980683109
0.453388481675453
0.444290557990554
0.439792158828433
0.457013954271203
0.440377897587319
0.440473004102385
0.444737505156891
0.432705519734588
0.49530980560625
0.444563917290754
0.4948568387067
0.437786401529327
0.439511765347254
0.43319475461489
0.464884400416377
0.433678418508085
0.433757715019968
0.439259465961927
0.426903841930784
0.453674966700694
0.426804744263058
0.435053044304286
0.427564748859879
0.428147847415707
0.446660478916632
0.427578511485345
0.421260423616838
0.443579164364002
0.410988330206708
0.409471944597007
0.461616537307909
0.42393880654073
0.407396222752315
0.40389115644793
0.406912341462716
0.399601530964903
0.407181150586606
0.408380817332223
0.393538903012572
0.395238692286787
0.38420796933761
0.399980216864937
0.38547430985454
0.391868506863975
0.372154401792971
0.385132737910958
0.379189925124661
0.36768389028439
0.386960212341322
0.362852219084
0.393068060853804
0.364785881163982
0.364891281772807
0.356425184939395
0.385668063656909
0.358517638210798
0.356327995932144
0.354232234472379
0.34695757289049
0.359643789765652
0.345032514321175
0.3317078228184
0.357557815394679
0.336891995449217
0.353809261139437
0.353689743689354
0.347900437036838
0.33906471236298
0.326214133838518
0.330230506107443
0.334187569273436
0.325530630937111
0.332588195377338
0.311906187739131
0.345561295104535
0.31625917537291
0.342221498459107
0.335441271849304
0.326541706239164
0.331606394013082
0.33561822858619
0.331705737154368
0.350426659309496
0.340192416275739
0.352332416774988
0.3327232687578
0.361214105480155
0.352128818319383
0.35706691865872
0.359147724254604
0.365749150696472
0.367250596274191
0.378047845229331
0.385554043962899
0.386532176836492
0.391384114990758
0.409308750850476
0.400133847823322
0.431921438305716
0.422628495141656
0.42207188432324
0.463746376536834
0.444428307211066
0.471544410527265
0.457238240927314
0.472087342976662
0.47986937287387
0.487911262020979
0.489479439111699
0.490262859526141
0.523136690846447
0.512079182017109
0.518174369725883
0.52397964965421
0.530600197210504
0.54449666243934
0.540413145052254
0.571170634893488
0.540624667381937
0.579196016232514
0.558542543316897
0.566848777719196
0.564991172836263
0.561937641145446
0.574622140701692
0.570904748398952
0.577129695493825
0.571223207919309
0.582680463784657
0.589031071326057
0.582713083416364
0.58993188102779
0.58933614422199
0.593042434641633
0.594803082871679
0.604242235346044
0.600584548769722
0.601233486782438
0.621974204632179
0.601434776787341
0.637930462742327
0.642517832784009
0.613735943220493
0.6395887399662
0.627984546396924
0.64079158510589
0.634740521443184
0.635014787403963
0.657863831041129
0.660021843258751
0.662286508830237
0.658991874682319
0.652574550221619
0.665258831375917
0.672334390227878
0.68035064753848
0.659188918512912
0.676960364622096
0.66927989497481
0.707462359117696
0.684827387151967
0.693172917147211
0.70149438723103
0.696095638163402
0.694551094384837
0.695705810108374
0.698847439994882
0.698655654602379
0.709698198106833
0.707229346547734
0.709618288961814
0.709038188856099
0.711541798984618
0.697199773923021
0.720436509607197
0.715958091058311
0.698714689891681
0.706300303510681
0.70326295929557
0.697636455905218
0.702864884541259
0.716242520320204
0.698309270235876
0.696780105522468
0.699720850020601
0.722589935998912
0.707396159020502
0.701112427946235
0.695430741633307
0.70192035858792
0.699274632128669
0.700928357126404
0.698416712538925
0.728309243245693
0.725470326528406
0.711995677085806
0.715144244846716
0.719972485755375
0.726361965270062
0.725448723372034
0.724013529673259
0.734378553949311
0.739610509694245
0.740693368871922
0.75255219157316
0.740773164108831
0.743030885078611
0.756873728232919
0.757177655183343
0.746161922266916
0.737434639192495
0.749368613869062
0.752973076374279
0.740909663629231
0.750724663885232
0.742869836424636
0.736190004532227
0.732424806614082
0.739546255072902
0.718987518264305
0.723231516274925
0.718023251039345
0.724301681932866
0.709675923155492
0.70455584049398
0.699312236153615
0.696666376270717
0.691533281653331
0.694222362957617
0.691021695567526
0.68305677340565
0.681962595828783
0.6830908165639
0.682147532042242
0.669798733620906
0.673095917319804
0.682590350050951
0.675557834024535
0.671484890664499
0.670770364865632
0.681966449937168
0.66949522187392
0.674195854046477
0.67966790982837
0.677891587144867
0.676296845797915
0.686687281573358
0.668214974077408
0.672614172862844
0.66666318182032
0.672988190306121
0.664493170444537
0.662885621103285
0.675264807022362
0.671366583027995
0.66242376529101
0.666933863743502
0.667133359785928
0.668204284250269
0.663311844586164
0.668796009960477
0.66324971382154
0.659070075637618
0.65596145083576
0.660279351484777
0.662834980396152
0.657388780795063
0.662313100300714
0.658974536764707
0.657682311739074
0.658291221698642
0.655795955084359
0.663405634343857
0.656562356103064
0.662044894035502
0.653646516947182
0.65182014268993
0.64925925665485
0.655723477389875
0.654398604282546
0.658630640458381
0.649850767981116
0.651870517295783
0.646443188384286
0.644648691134485
0.634441794736226
0.638597789634197
0.634403430355716
0.628532967514486
0.625064600068571
0.615546141204592
0.619587347716786
0.609701120216196
0.606738324774913
0.604257855592127
0.591637055311226
0.599629785578625
0.588119604510303
0.588391867598302
0.588674092562355
0.588546089988671
0.577061368351513
0.579612769863726
0.583601344771983
0.579327086836337
0.575759759342008
0.577247804907436
0.575142535601984
0.577094413959169
0.575410267648552
0.573638805388452
0.570861569690953
0.577796836980471
0.574410959463057
0.583598287529976
0.578671254828857
0.582660783090817
0.578627904676463
0.584457345759501
0.579369040014723
0.582766562252469
0.590481970994088
0.592209059758355
0.589797773577702
0.592669617359823
0.600849259923162
0.602585511787999
0.602435194393993
0.602720777893731
0.606808044860938
0.607752833096371
0.606514467905516
0.606634316251956
0.604432999611287
0.606460400274247
0.611830392417665
0.608957661070197
0.607431675417931
0.606851282876743
0.602944382196111
0.600307371567281
0.604507051271853
0.604815108247118
0.597530860537346
0.597676673670724
0.598214347845475
0.597116744908017
0.598720973596344
0.592166863353467
0.591041851522928
0.589667200477442
0.586645766059495
0.585638776202771
0.587051793475466
0.581735127593831
0.578785079636498
0.581190887488169
0.576680537284426
0.574889551902003
0.577265868131737
0.579544622003487
0.570421221311104
0.568780948692143
0.567840599785643
0.569440368949688
0.564887127610161
0.566345204918807
0.563861582722952
0.562314690586776
0.557575760485824
0.558821234694604
0.554859243326259
0.553173441240605
0.54878832008657
0.542543165726587
0.538217622507586
0.538318521364455
0.533568930066186
0.530493416301939
0.525313548894737
0.527222713784952
0.523961508968343
0.515465722062845
0.515636567462697
0.512639471548348
0.507313358119347
0.509016156728428
0.503711023295177
0.505606753363841
0.5045285670084
0.500936377634916
0.502998016818689
0.501368172021757
0.495220919834725
0.492594707541027
0.493019459732013
0.491175903970398
0.485294333739767
0.486667171401282
0.476387867609882
0.477572194301958
0.465618149563538
0.465212181944833
0.458758675947405
0.449595949029802
0.447906171801048
0.439506595474082
0.433626249043359
0.43319957818047
0.431041724391388
0.432755853496725
0.432620196395894
0.438161411088374
0.441219863307303
0.444994566653465
0.453654004361997
0.460615596022292
0.471531014244239
0.486625127842134
0.501845721279219
0.513527474221542
0.532002362901418
0.548275834542376
0.565870288378402
0.581806630799936
0.605747467690074
0.616716618476472
0.643509334351459
0.662384814941291
0.679760800723983
0.701946273097209
0.721223339585021
0.73180624372547
0.758038407657495
0.772397291718729
0.794902400971753
0.815754888825686
0.829460466072037
0.852236797641933
0.863310322454646
0.879677661923021
0.886082404286464
0.907980653276095
0.933632813860106
0.929024509144868
0.951966158548545
0.953358135903595
0.953641088973198
0.962942646853635
0.964052951164742
0.962621876511738
0.965128373663875
0.962039256379871
0.957735779903135
0.960873673503846
0.962089352277628
0.964921694184838
0.966219061149299
0.959405128904544
0.965691575180151
0.953722159012018
0.969105820869769
0.962021871012352
0.961631545065723
0.974152969295932
0.975798495364718
0.971274113053446
0.983232171899865
0.989001883949421
0.993789115605596
0.994372408901787
1.00743582575205
1.01027605919153
1.03470331783047
1.03537678010504
1.05450806511059
1.0548881194526
1.08029453703608
1.09197031497177
1.09560360031247
1.11434422694604
1.11491197443581
1.11512436707273
1.12963504496349
1.12946755218526
1.16158087945497
1.12262424760505
1.15843376405235
1.14479277327233
1.15369607119647
1.1366147794654
1.15316414746128
1.13503207028411
1.14097123934754
1.14082890360339
1.12707644759196
1.13598630541774
1.15566693016904
1.15140490864194
1.16660370750794
1.19043680700151
1.20933388524247
1.22283801019945
1.20782113391212
1.21506569939416
1.23945369082684
1.25836880947112
1.26459804422369
1.2654958024273
1.33113334508525
1.29297278698044
1.33409110452323
1.33012893167821
1.3710253811166
1.3442566154883
1.3704240806529
1.40472594600518
1.41216047320195
1.42900479857054
1.50175704527101
1.57209086827716
1.53670267703116
1.55236452795248
1.59383669854449
1.5947410718541
1.67678029133852
1.68354189195724
1.68231583515947
1.7398895041283
1.77487935695485
1.64915725424329
1.87443546712944
1.7507126307596
1.90379637290113
1.87356858705466
1.80756979698402
1.81145091979266
1.81448571974776
1.71153944164482
1.8461888516482
1.77084786934836
1.70675166291721
1.77613019570256
1.68601314248798
1.7129599336166
1.72818927895222
1.79137116346774
1.77866154139898
1.76685662101763
1.84003909820629
1.79704279455844
1.88742314046565
1.73007751946647
1.88677925419911
1.79400651048691
1.95335669452884
1.93579608753086
1.84523712027248
1.8013641398536
1.95334320200766
1.8863637233768
1.95318175181138
1.9752087157016
2.17709333192889
2.1417089738304
2.06081387125379
2.09139750828258
2.42999029701808
2.09238558105106
2.01764558962106
2.08831561243323
2.33813527240011
1.97402474624339
2.10206204277608
2.00508200751276
2.20655788046519
1.97832761616989
2.10611938789696
2.22669255113172
2.09029037233038
2.23271245070298
2.39072942947901
2.05061420177362
2.15731167091787
2.18813824270469
2.16834915811013
2.19745655071299
5
2.36242660622915
2.06183809356261
2.24361831587801
2.67433533490712
2.76946245695618
2.18323242716235
2.04190928565949
2.8699918793831
2.08904430391324
2.43793530606676
2.01155808017386
2.21043448238617
1.97397165206211
2.04530851201687
1.92404293493417
2.02468824344994
1.88960269594012
2.07472332370275
1.84423605620553
1.81475883850543
1.79993220941106
2.03868315260182
1.75236473176533
1.91531635673233
1.76337362776829
1.77588680830528
1.68803980212069
1.77403869227066
1.70398837265189
1.7332896604446
1.65344511483223
1.75951971674255
1.61703305792846
1.70328467275332
1.61444710339579
1.69888783321583
1.59637351784086
1.60505055675315
1.51751128301195
1.48952564311505
1.49362167906473
1.4671554036313
1.42468281278567
1.42045825197539
1.33494410489463
1.29513134832529
1.2492625320151
1.19872657156255
1.12378219834771
1.11094517069638
1.03663410180934
1.03716305785315
0.972083727328009
0.954443513223623
0.911444359457627
0.889479892856304
0.864414290917454
0.839778303900902
0.798624980697374
0.795679007340285
0.771496340661672
0.761101404580739
0.745353301564511
0.716456380977336
0.715447324570451
0.713797176770248
0.693864434953346
0.696514000342555
0.685425222737253
0.678738313969507
0.672496521925936
0.676025683186637
0.681198881015565
0.675330544539884
0.679423361474596
0.688836524100056
0.683548314009802
0.691080684972338
0.686602422094315
0.690204837166562
0.679992491542787
0.681048594278791
0.683012799882579
0.682301130983905
0.683322601718666
0.681231895084611
0.679447469291442
0.667576389208397
0.667711857267342
0.682946684714923
0.670211309202768
0.655749756987196
0.666644012529841
0.658957048588133
0.662258271457083
0.660653478207266
0.673269382667132
0.675177977729302
0.66646422160725
0.696086764311873
0.687095146410331
0.679994087483636
0.680476321973439
0.69763814119405
0.685304082976058
0.691601214956907
0.692934586996861
0.694048759635415
0.684168783974092
0.708431077274677
0.689685131414567
0.68797076870938
0.686219143712977
0.702233465873858
0.69387242982709
0.695627968737241
0.674992714448549
0.697737836875199
0.68911437299367
0.692958436607577
0.69109105142746
0.698727651972367
0.691174425827474
0.706840338150875
0.706979643009502
0.73306958744142
0.727341718549427
0.744783492917306
0.744614931745768
0.773222310684751
0.792351916078553
0.830542025861569
0.832026216963182
0.847712847647851
0.853203241649797
0.847241152866888
0.854427389750992
0.847475496252858
0.838832262631365
0.839621520990419
0.826620388695527
0.826461238354007
0.808040195639387
0.808599970469421
0.769361548490025
0.770277738923509
0.787903104704351
0.770541823926255
0.771849714311229
0.764479968310908
0.769204192927
0.776008744274541
0.767201589261367
0.783489966996772
0.775658246654285
0.766953092705419
0.767941554014517
0.775548743549439
0.771931352430345
0.753087342061806
0.767173637130251
0.755908658745188
0.740596954577801
0.749277519339234
0.739660694320859
0.744526800887419
0.735317199741392
0.750705045139999
0.735068366882684
0.733855486343782
0.711401387166094
0.712653046495742
0.700787037065363
0.7316198447819
0.718211453359078
0.712473671401605
0.700476902652755
0.727161204030454
0.712062707607604
0.706251652562993
0.713537262126027
0.709855581293319
0.697756962458317
0.711436199188392
0.695857467282393
0.703729521946203
0.703758140126657
0.698515854199364
0.690951248323567
0.703758130370509
0.668477683585849
0.686509743130826
0.678385116809889
0.670525234731077
0.658868158828795
0.680856983581181
0.672984077986884
0.666979544379054
0.663026216103924
0.663208406079277
0.654994290009356
0.667572174727843
0.64462719122628
0.647292609217153
0.647137684270794
0.667479475569099
0.644015197637837
0.657479759360361
0.656164263139229
0.65584599965757
0.65376536646169
0.689849209106008
0.656821240486789
0.655195551017037
0.650849575315474
0.6560660615583
0.636231467253302
0.693974800550976
0.683686413757293
0.672956562602486
0.658973304674449
0.686683899795391
0.666449316737129
0.655698409921247
0.662861344041674
0.691255614218958
0.682306072826108
0.720083030998243
0.686805206386841
0.689220727731595
0.71100040740953
0.733965723187124
0.718117103909436
0.757561587985439
0.761033451316539
0.776024505983272
0.756625277778262
0.782053876342709
0.793896535535246
0.829220480933223
0.795236094336709
0.842707196280814
0.788461288600627
0.889425153981771
0.934027205215804
0.940836042910263
0.954109650365293
0.9215067899102
0.896864440435632
1.00401139753267
0.95867221961601
0.969550459118347
0.977815888883215
1.08772961068473
1.03516570360384
1.06348215290351
0.976002884365171
0.99580864585878
0.981046599993912
1.05342044733962
0.979289238932784
1.03616423508348
1.04141627716317
1.04148419017567
0.989110980707493
1.07984885567796
1.07653755429849
1.03210342936104
0.991845531764363
1.07855730081286
0.99556169860023
1.01855018561104
1.02443538418196
1.13447825634851
1.03849247236742
1.03000189033018
0.95097949971437
1.00494789575037
1.03694001785621
1.04844686474864
0.961375716378467
1.10564935628847
0.948249224982963
0.957725873459593
0.978955151845797
1.00305817449735
0.950929375940459
1.00849160382476
0.867732366965024
0.939125453863383
0.924307573092605
1.02623915760691
0.982654992053772
0.962444935116242
0.974943887129805
1.01610851793362
0.906645049643754
0.993612958010997
0.94640020499185
0.979668487459102
1.00915882920257
0.914893371041239
0.972994803193299
0.961570189741064
0.931300757148716
0.919523998889195
0.958319755832069
1.06480778763334
0.957879542809627
1.03360554110465
0.9016682717001
1.11857365555565
1.11116136649977
1.04089775737007
0.92785288582974
1.14841172057031
1.12178787689821
1.05922236960388
1.00405957888112
1.00315064589696
1.0112702909322
1.16828590738842
0.965420434320131
1.03429004932205
0.973583310456243
1.24221390630325
0.996139702882165
1.16440968029904
1.33408955445214
1.13801363334318
1.03988157915938
1.53781345262449
1.1069847025261
1.20262504463764
1.1125592404331
1.13462678873211
1.12058109743895
1.14178445716916
1.27050056197194
1.47180416173881
1.09256732647282
1.4074612264893
1.62057180498321
3.43884613096568
1.25653738082396
1.42172599935169
1.38563777206232
1.51483828483974
1.06069545466588
1.47666558853137
1.16933768713625
1.85110470785626
1.12079078282789
1.50452241611014
1.95043136312539
1.2720627153797
1.20129095297493
1.16837283643794
1.35560798921682
1.63052644905124
1.33147357999764
0.988979874736467
0.896129245355634
2.53083554178039
1.64354033996869
1.31142159801284
1.30477984783183
5
1.53062302297667
1.26707658073463
0.90704790858888
1.73855540234533
1.32492504128081
5
1.12001312299329
1.33050838185909
1.45926958955057
1.04295728824378
0.90766323856674
1.33867307527868
0.930259371421471
5
0.982078790258191
0.731005269158534
0.978785006683972
5
5
5
5
5
5
1.34697686865791
5
5
5
0.931069435958043
0.917589709936522
