3596
4000.36533379555
650.420452594757
1
2
2
0.0538182950437138
0.0412983675376902
0.0623917682338433
0.042306922186281
0.0626203689101214
0.0339278915407032
0.0535160791044211
0.0440436412589677
0.0582382700226439
0.0330913610865235
0.0482335644504469
0.0477307715981989
0.0509755377949747
0.0405702325704446
0.0505894676121441
0.0325689742632352
0.0544011744933592
0.043833997544551
0.0508581098119078
0.0382632380108087
0.0530810115911456
0.0370133380407986
0.0589436481578896
0.0387359454568966
0.0467663530255831
0.0346444312844252
0.0499606977466223
0.0473374682270187
0.0531595498121907
0.0390284465762632
0.0604413521857998
0.0453814929583941
0.0456566970939844
0.0476867761511164
0.0567278627704262
0.0412048291885465
0.0523675470087093
0.04168354009802
0.0624925317754504
0.0422325180927439
0.0542594194027644
0.0414867299118212
0.0487935861931837
0.0373927169556252
0.0557165956256256
0.043768560455913
0.0459369091433319
0.0362839593945141
0.0517243455289096
0.0338458055029904
0.053492229504182
0.0449957455518812
0.0536768031437536
0.0433434318127821
0.045824049789356
0.0307100087530274
0.034359444228554
0.031423538768094
0.0505849765154608
0.0396441703460312
0.0477923627273074
0.0426214260431661
0.0460868577990176
0.041959569381165
0.0483663361641386
0.0421712526623808
0.0451757086588654
0.0403226072431422
0.0438506559798698
0.0466542859408949
0.0551595602975123
0.0383694891898923
0.0545058901017273
0.0347812643926332
0.0568177217969439
0.0377629451788909
0.0516451706096931
0.0329727075179671
0.0428582854306101
0.0320903638818644
0.0523020359148301
0.0300271833238401
0.0527176553764019
0.0446908301638924
0.0418890985829607
0.0377902224273003
0.0518275262275397
0.0219712480206377
0.0609397358224786
0.0237318583933019
0.0434930046213003
0.041183697071941
0.0426542353899951
0.0321823614254665
0.0468121046287625
0.0337992953069413
0.0481451575316407
0.0232849412388019
0.0482504981824819
0.0289828494098446
0.0620364329381286
0.0216660331950069
0.0757083905204152
0.0249813430897463
0.0420405162948864
0.051973266744457
0.0287973208892981
0.0467400081045585
0.048192473197866
0.0377714251812418
0.0414543163120772
0.0338612365829174
0.0311176455623722
0.0315812723697714
0.0544584320776969
0.0336485932084952
0.0545410445206591
0.0314121535114085
0.0445593254587416
0.0327271860408207
0.0552462155819967
0.0164840635521467
0.0716593209636017
0.0186936770365849
0.0461067077266628
0.0292928198030098
0.0461344735348588
0.0322505080682174
0.0541441627615721
0.0248036315612146
0.048845570320356
0.0241153542376304
0.0541288663632505
0.0124282952854474
0.0702773343743015
0.023991081102933
0.0415515247727513
0.0415028119586349
0.037234184817328
0.0300661302610643
0.0414609944678176
0.0325069649777376
0.0458505634227682
0.0361163963077069
0.0616695366169071
0.0223915765202255
0.0449761761754845
0.0320932678695301
0.0426458951177019
0.013763767572776
0.0391470337593368
0.026913761431747
0.0442477477407374
0.0291218441755401
0.0598922982873989
0.00967228449546939
0.0860163820499953
0.00174316348923093
0.0676887760593828
0.0236998163687808
0.0441651889348953
0.0257442737001127
0.035269267965323
0.03283865617488
0.0337853308244925
0.0385464489449659
0.0351765102202706
0.0429164355022906
0.0479356350762008
0.0420402770416549
0.048737640201353
0.035820632582419
0.0412707990132782
0.0169003591987937
0.0413471047684874
0.00892941620210025
0.0575966432063083
0.0195007556699592
0.0416625425140708
0.019924595414704
0.0481536462562635
0.0255521371310594
0.0422704154319186
0.023880787310374
0.0463723827858845
0.0191984107877346
0.0467053909880225
0.023943916725382
0.0495994515508109
0.032259099110205
0.0601296293304589
0.0202612841202875
0.0578019269241614
0.0208116304270971
0.0482482874106248
0.0346917191570856
0.037020386835084
0.0364405539900764
0.0332809690559394
0.0302926259916044
0.039456186277691
0.0245456258857361
0.0427396958040834
0.0297132240312349
0.046071269371617
0.0140310956643493
0.039229381256767
0.038590911838047
0.0403194647506832
0.0251031982313089
0.0414007995345067
0.0400759473570323
0.037493300811673
0.0438751099619418
0.0366643471985586
0.0382255658606623
0.0326246196250662
0.0344568143284986
0.0471371725284049
0.0339862587709108
0.0435901119643103
0.0275432854486722
0.0476432559177986
0.0349406252262168
0.0335945632583099
0.0331061132629451
0.0396996838403304
0.0363573150576615
0.0434457115733839
0.0320163858165007
0.040513102052561
0.0394427840475082
0.0465412923736007
0.0304274374257426
0.0532894324068037
0.0354575506540582
0.0567381239414327
0.0312411064255352
0.044965693225274
0.0326301932533738
0.0452163493923928
0.0313508767918522
0.0411334791632139
0.0267659474854537
0.0454063865248924
0.0409839440329576
0.0403666210758923
0.038627039577128
0.0358266190370572
0.0510555799115476
0.0310936866760267
0.0573884548349683
0.0319340829056412
0.0407008916132026
0.0314078423200587
0.0500577833453174
0.0377273483863435
0.045405946899041
0.0501317158480651
0.0483709162667673
0.0341318930042568
0.0460736150156132
0.0472571254396745
0.0432416015867585
0.04978165522073
0.0322530982514671
0.0661477034377569
0.0309527073640937
0.0413753342157629
0.0465614282955573
0.0400790957844279
0.0550638715943996
0.048676833574988
0.0289863396552003
0.0544796935359436
0.0395668104133093
0.0399893468378672
0.0323277102656752
0.0518808141265891
0.0320856111128008
0.0629958696177124
0.0383368310168297
0.0876948952850587
0.0539523469288207
0.0365934053712241
0.0644913158680236
0.0355203021729602
0.0477217978464254
0.0359055168559181
0.0445457848697228
0.0417943073676548
0.0574653188368279
0.0432425064590283
0.057285274895864
0.0331302055834878
0.0551816451159302
0.0491839552175761
0.04827534314944
0.0519005419126291
0.0497293528011639
0.0552107289518129
0.0564615886980385
0.0545161977433833
0.0476839774775111
0.0524139650333184
0.0410282211488099
0.0642221861574603
0.0517619081945727
0.0557267348272684
0.0625602636949472
0.0510185939502293
0.047356636291891
0.0548096644168221
0.0484860795641194
0.0522962254863209
0.0507528295343305
0.0546079255316463
0.0526814418154346
0.0702873921614159
0.0514914638365843
0.061470300347403
0.0533069107751823
0.0692242427669676
0.0521992136990558
0.0610786837355422
0.0574757623076613
0.0627216725234606
0.0544505446321311
0.0588641384357981
0.0687054369707743
0.0581655301617744
0.0597357205932561
0.0823173483970963
0.0489872485581419
0.0806549464387364
0.0605773744159719
0.0745705710968171
0.0608506038509759
0.0656562109630808
0.0643636023435949
0.0691922844527995
0.0698663814486709
0.075572788944819
0.0682883514015547
0.0773566193673583
0.0818771569311768
0.0926718319484807
0.0703407421007396
0.0777525504499571
0.0865571421210313
0.0728955188248087
0.0982036807950797
0.0678695848825937
0.0953634582335154
0.0774516162836407
0.0829957210652528
0.0942376715691613
0.0825458065025378
0.0937308801866283
0.0897404190746206
0.10405480706453
0.0835487123987179
0.0979372264739716
0.089269292093297
0.108813056444897
0.0935441298275163
0.107771536928517
0.103433549471055
0.106708677728578
0.111395507634082
0.113475795216395
0.0988206917585196
0.130600380468395
0.110091468900962
0.155632352939865
0.100713595807501
0.145315370077046
0.124511867225102
0.123403936193483
0.121624282110024
0.120190799985589
0.130212250219635
0.134241208214923
0.135808640929738
0.143182040854376
0.141325028950438
0.143470784614546
0.156385401058891
0.148557490423841
0.14735705719323
0.155123317521388
0.167833926597513
0.157217235104675
0.160237126243494
0.149540553903045
0.1825030659427
0.169296465471962
0.204761451172931
0.167553877612092
0.165674955198961
0.177263887716596
0.17926562806928
0.173010478107727
0.188091617681921
0.196592591379941
0.198445613406055
0.217560800672138
0.196500536636481
0.222595316692029
0.218824574971819
0.204333313907781
0.212368116411163
0.208842377533932
0.237317284352662
0.237036208574533
0.231115976881251
0.216478347078928
0.238293072233511
0.224053105876748
0.253348306814744
0.255451552918699
0.233030930347992
0.244779948725065
0.234469002927562
0.252928668400456
0.258622583595211
0.267097990735043
0.263516969216814
0.261910567561496
0.261531096454548
0.285515308287843
0.291375575896483
0.295865280807854
0.275355012928641
0.290206827969671
0.298324244459098
0.284968215941222
0.308713247269076
0.294612808329318
0.320783350075893
0.323550372813046
0.334839471866161
0.340730969973311
0.333216026638848
0.334602417475478
0.324674193775235
0.329656810093863
0.325696164639436
0.337606364937698
0.359704432741673
0.372860670563695
0.360024395149463
0.378745130510863
0.361728742317522
0.372897627020714
0.382353881747205
0.382022963034272
0.378357619117064
0.370871334770085
0.394614230059281
0.380560516100256
0.42147748565941
0.435619028446674
0.425979714266705
0.43416227064854
0.423640923121564
0.420981423838777
0.419016315700836
0.41435591372806
0.428764180226009
0.455412486268099
0.443370114687081
0.444974129591248
0.457993455872724
0.461050522731989
0.46086967317841
0.470432054119046
0.482091813329569
0.472776098129259
0.4920897755377
0.498572454080773
0.484019165383999
0.49033189657631
0.503243395955011
0.49794506057224
0.517211813663826
0.5130986170411
0.526233292881505
0.525701975464586
0.529536924226714
0.543679853426332
0.550912808132976
0.546293485131794
0.554446568961848
0.546303316217084
0.565959872003698
0.536189780970162
0.577968369552315
0.573612540163016
0.577674020059594
0.584138566899565
0.628099099625258
0.585546813765662
0.618460773790334
0.596821106022106
0.621337686717574
0.618155074501231
0.628221680259678
0.636734626486933
0.65899348165138
0.636335489225753
0.66484821277426
0.659743724016609
0.689444425065818
0.647482929093148
0.641430096696864
0.657247196875494
0.699150883516051
0.672150537950862
0.695434771922187
0.65085454112083
0.710383779916231
0.70392726165908
0.751173958466243
0.683521276123665
0.729941190416007
0.719384125733853
0.735104443251193
0.723564391739183
0.736262737925715
0.755839942301981
0.753095662313707
0.718918678413503
0.79534504091042
0.766870134716066
0.804443945941215
0.766689977334078
0.786949808081982
0.771163438731335
0.808265058035762
0.787677040943767
0.812895989229718
0.801279590564528
0.863816160318552
0.797409566344421
0.869304252912146
0.783090200578977
0.804827305070827
0.849128158901069
0.857597041739904
0.815845445181521
0.898402828258263
0.87569217322245
0.903390250221933
0.835021285698046
0.889746740562583
0.875171739491774
0.982186073897575
0.904397660233065
0.938576082013918
0.940061706134881
0.970918568703851
0.910871329424814
0.918407923598707
0.938700807396254
0.977241326858432
0.880328971015051
0.936457837982191
0.850738797024637
0.958313709763167
0.948879360162554
0.978603917785952
0.940534600235541
0.990664902380786
0.917320310320797
1.06046755269544
0.941377360644314
1.13767653612322
0.947306538241381
1.03489236418335
0.97878903916561
1.09219391826303
0.982155370034518
1.13631918109353
1.00918229077837
1.08716760989397
0.985208622808529
1.06312386743911
1.01675395697547
1.11569150093849
1.00587765329109
1.12674333879365
1.08924706806174
1.1814849391722
1.05840299715862
1.08975790169131
1.12143731681462
1.19555941701072
1.06882886939037
1.11829111086751
1.0407709715783
1.17000326372118
1.08702661417387
1.09842434169471
1.0814810972702
1.22013000557686
1.13758619772111
1.18569831367996
1.08940288582334
1.28114966275074
1.01307141436043
1.23675689366596
1.21279510898869
1.27044739474703
1.1454470122535
1.28169703297296
1.2387103280882
1.25597606583837
1.14166020106051
1.26371432528915
1.22936349551225
1.27462737046982
1.2359275872911
1.40828191051609
1.10644780644393
1.30687905790736
1.12209508618367
1.26122390712088
1.18923462826935
1.19802666255065
1.16402266858161
1.30766410816477
1.1610756374743
1.29786553683781
1.30797239633556
1.42652475063536
1.22266825150947
1.4168865352794
1.20323554525749
1.34659574415265
1.22491490658059
1.33027641933326
1.2231573759768
1.305539620001
1.25309197223926
1.33933476334018
1.24509502648376
1.34057250278178
1.25459788929034
1.45953758576361
1.32545986651239
1.51261047279598
1.21836841451946
1.39510934803848
1.31726855022227
1.559965749982
1.37185760837257
1.43644317249726
1.23407890685462
1.43233510882451
1.2373417026325
1.49438835811956
1.35856407203562
1.53064234463465
1.35341861174169
1.53885924728728
1.30575896398523
1.4135687279699
1.38776298467974
1.44314620504906
1.28585411250856
1.47575701681485
1.37929272292403
1.58687258714326
1.27936627265433
1.48125439576372
1.29386154496488
1.35388990156458
1.33399634837613
1.44362650968994
1.43367397365384
1.69801758078368
1.40031848311704
1.65780155905119
1.36006306333321
1.5922036679907
1.41778826971517
1.50088015899698
1.47603123258647
1.57859377082548
1.43765068823593
1.53456977830226
1.37050000327548
1.7622870468696
1.36435306088035
1.5138086975156
1.35108617823359
1.50463807862616
1.38011124134156
1.52624527034513
1.39357229047494
1.53242589531397
1.42657143204721
1.47698518499749
1.24639693518507
1.7705279066005
1.43136418927186
1.58067166894446
1.45138727894918
1.71551058040616
1.46116685102384
1.7060187166773
1.39646923207402
1.64377224717381
1.32740317996057
1.60457016374727
1.32952012286467
1.72597067910689
1.39493305414991
1.4357537987819
1.434589966406
1.48792376696323
1.49348434124138
1.60106951684002
1.37250299170391
1.71727119441181
1.38256889209309
1.50770860631745
1.56690497796332
1.58013234385356
1.44212221342771
1.66904865936984
1.46547182462989
1.57831833723897
1.37955198289045
1.44825966652047
1.62340687819954
1.58047875434617
1.54050382386959
1.54347805660737
1.38600402425135
1.62324034878216
1.41044591859824
1.60289603765867
1.35960454228959
1.70900126872043
1.41798385120525
1.64832684053161
1.42020870532697
1.51230484769514
1.54768743943785
1.57873301985914
1.55349408958773
1.63882448156702
1.42994515164043
1.43630389651957
1.43789322810165
1.70565419079203
1.41704750792017
1.77211479033705
1.518090445567
1.51601801513786
1.41687444183456
1.54174935289606
1.367568352355
1.61653778768724
1.32248374227781
1.51972653588495
1.44320681246005
1.52343766539842
1.50636990951792
1.57011704011458
1.52693235307001
1.5930326736389
1.46477946743384
1.62179219110923
1.47106487853528
1.54560601789295
1.41501744899263
1.63917147595766
1.44166662583392
1.47093640953483
1.49927016652802
1.63664468536318
1.82006472859072
1.39570721394081
1.40384915113005
1.46526222955001
1.40044982465045
1.52149619831436
1.49851272840309
1.46952349833752
1.44727703385304
1.55246340491943
1.43983451266798
1.5306929232831
1.26499687125366
1.56423004513231
1.43402564300727
1.51355727190765
1.41699653732063
1.61853080390549
1.40540787560171
1.52569105591533
1.47026467023172
1.58526842422552
1.36643364380608
1.47823240184552
1.57483599965336
1.57346542677754
1.35304169772979
1.36249742058779
1.41136294368211
1.56340394304518
1.40453231392251
1.51560638424678
1.36615763296737
1.56480275578435
1.41507897638844
1.47274591060965
1.43133472196513
1.49823207525529
1.46541537661077
1.51985039831948
1.33174234179653
1.54178637663442
1.39321424668225
1.45307279794097
1.36490729391137
1.40207568773145
1.30593095352448
1.29065062286061
1.28313773540871
1.49809387645792
1.28894877391604
1.47064947367585
1.3209398871253
1.41435972161228
1.28445047732588
1.44784645113309
1.34521991933398
1.46101504562194
1.30954863922771
1.46306578301484
1.33077346889449
1.45684093533882
1.31192494689597
1.34768824755374
1.33912156293571
1.4113826237271
1.30835924462961
1.35851579170385
1.31120445191783
1.34371463880528
1.24204495553136
1.39440809589949
1.23941545406006
1.32392604652672
1.2748842030515
1.38394739635387
1.22997569034849
1.32192301998955
1.19182628966507
1.39192170948124
1.20485270541169
1.27104340098298
1.23702809312434
1.20230667301772
1.22320713920212
1.2855014779288
1.20865298647336
1.26945577173934
1.2025496416042
1.28406453152194
1.24081356951233
1.23466334721689
1.25664786573868
1.28774987097363
1.18366321168351
1.22334676860382
1.17805147325339
1.23325778385855
1.16368562944326
1.20428621178181
1.18607983016874
1.18996073397021
1.15559969060682
1.13988431153505
1.13206824576687
1.17708024445622
1.15807405699149
1.13242995586397
1.17161774010583
1.14471303173683
1.08210600266386
1.14706426141797
1.07191693796119
1.13056064571445
1.10985322497365
1.15435316493896
1.06713612790435
1.1052011045434
1.07953087674104
1.12052691854137
1.07532280076948
1.08612825125083
1.0410145073822
1.05559078198068
0.988947101374025
1.0614822058009
1.02418141229883
1.07300663012469
1.02010492731411
1.09254123919533
1.01353471079429
1.07272161687275
0.982806930409249
1.00098129658809
0.992398059920548
1.01759836800444
0.954775030882337
1.00240188642084
0.951916302646756
1.00878541661297
0.976970228953924
0.996611654051813
0.948503205897029
0.969819541158902
0.937017140427284
0.968918750809727
0.934877750352245
0.967580897501276
0.910105597690431
0.944287707935087
0.895591869060864
0.908601641984819
0.889606140608853
0.92375664675346
0.857591709972236
0.913138083750807
0.877361883860982
0.933122612160566
0.873971536857707
0.892935121629697
0.851878488795603
0.899493841227847
0.852332923861164
0.878936154279819
0.862191102552438
0.871427576725752
0.866484299229275
0.870331041433847
0.838805660502824
0.832945461432861
0.833923082334221
0.826633064529552
0.809937736058083
0.833491800042584
0.798557821446655
0.820498078800393
0.79800233221637
0.818326270666606
0.776567968183157
0.798198182409337
0.776911511932626
0.787093443620586
0.78734657475884
0.782572147472954
0.742843583291194
0.784493368033515
0.760346987278304
0.785080863221191
0.761694435322501
0.770126272559853
0.734629875922595
0.761177301375217
0.730048119961945
0.774936919239678
0.738792752817388
0.750171491813426
0.708466313899913
0.710216062601635
0.705246103897383
0.74174155890892
0.700946440624997
0.723831519757844
0.683919517707381
0.718167554458619
0.681034808801872
0.7117357319591
0.694501232296281
0.70127731009642
0.662472164359182
0.685378402260092
0.648208976340112
0.682797949767315
0.666798825425916
0.678992595581913
0.664495515725698
0.666311243339621
0.658960831705802
0.659512616449789
0.63916140111743
0.663239839181217
0.635780473426991
0.652817079724741
0.637171537374335
0.634854636912174
0.622804566151365
0.635654523200112
0.615432415858046
0.618106731602735
0.606997241609675
0.61827583803916
0.606451066455089
0.620897022311016
0.591520038802341
0.604276539287435
0.598866094879774
0.609705887856293
0.586179501755379
0.589742008133336
0.580430250611869
0.588293148624598
0.573711466349618
0.571628411791112
0.549393217809604
0.570323135754912
0.555682910831719
0.56986103706112
0.553490131602585
0.561237278949776
0.545696911544428
0.56919517379338
0.54024814759383
0.550357550937934
0.536243942629552
0.550681508375068
0.52990361964234
0.550562251134658
0.533602320862932
0.542435431585537
0.52574240053815
0.534029839982494
0.5200813607659
0.523100748541685
0.510154745095547
0.521955003947537
0.510087983385785
0.519880263225639
0.506523105215742
0.503638824216411
0.499490785193927
0.506903583713239
0.490201864633408
0.504951497611706
0.487207005694877
0.501288012791194
0.482751015892978
0.500984068215306
0.475661782594797
0.501861324716969
0.484302012680893
0.483948055140333
0.47405070228988
0.487665762702989
0.470715391244151
0.481363513880069
0.468805446379947
0.49054827223953
0.468626543909215
0.472833167713131
0.469291681945585
0.478974257356532
0.467634919162887
0.477380300273224
0.470813007478016
0.4829870866922
0.469998488049249
0.481847493635209
0.464940243822035
0.471296541968065
0.46758822681662
0.479528849764404
0.467755769450317
0.482749907629109
0.473498426616516
0.474866985387776
0.471773855782571
0.489722389988719
0.459258139427543
0.483639217385488
0.479989530525388
0.483125136372474
0.478378297780716
0.496690734444289
0.479919254652021
0.486550066365642
0.482921463587211
0.498930600786336
0.496886068352499
0.500148158366372
0.483172898288532
0.507642659639809
0.506219602277237
0.512150350315978
0.504509207770508
0.527669994251693
0.503781120159807
0.513436550265938
0.512232136664402
0.529932466196664
0.518628126039581
0.524001223905586
0.520673973719303
0.542757987312811
0.522419512029915
0.543771374880149
0.535523555770746
0.554750700485287
0.542428187335772
0.544107152145626
0.553358536580051
0.553710296600966
0.546347488268365
0.561611426690065
0.565302048344254
0.581101983393623
0.5614857264808
0.578028162944199
0.582999992587811
0.591330000123981
0.588668752722179
0.600287604838585
0.597485124787413
0.616811747646402
0.594871648020425
0.609496623926678
0.610282673854298
0.618583019147266
0.60414457242009
0.638520370048784
0.621215612116848
0.654177887581157
0.642715645968859
0.647895357364343
0.63800158037183
0.648065779481595
0.64014964117819
0.658535207267878
0.630561619986271
0.656429102390845
0.628129922856999
0.646719889082915
0.645215246607635
0.662695022356193
0.654192699685631
0.645387878698554
0.631926145930649
0.650339190644629
0.638009035778055
0.657388107095794
0.634637545112938
0.659821037471858
0.635901901193245
0.654105257260517
0.633644987738635
0.63966489548017
0.631511626820739
0.632073745784827
0.633424247742392
0.629652957696411
0.624401313607266
0.650783891195849
0.623346231823877
0.628205745917895
0.623641940508761
0.637051063613812
0.627227753194169
0.641070384302083
0.623409615046435
0.632820425185558
0.632100906133599
0.637288365710407
0.628426959413242
0.640211302812382
0.630793011108153
0.639148088839591
0.623924252358223
0.641953618320349
0.640637248019425
0.640804917287719
0.62623550150516
0.628318372443005
0.635859492849852
0.626965429088191
0.623420629377409
0.630435884936157
0.621939458253219
0.634554637016949
0.617810032077405
0.627200846706534
0.608703736790587
0.618840688220643
0.61078744425128
0.622686598559678
0.595478794652656
0.61416848347122
0.604118615212901
0.597641503192536
0.593094219057721
0.60118301817868
0.599205790209958
0.594268034908249
0.574991879522348
0.590099962882415
0.58741760224539
0.583062383809961
0.565814842189458
0.563391857261196
0.553321321719408
0.558631467759758
0.549169010824742
0.56464801868922
0.542684846063783
0.545647657413582
0.539421483097379
0.537041146779126
0.527510353453334
0.523994379107909
0.51940734285361
0.536747157818298
0.516828440019689
0.514598893864589
0.509011632487008
0.505094758085054
0.504578019487344
0.50383515763821
0.495568476346355
0.498793719590369
0.484388102795922
0.487584107878869
0.48181239859047
0.483565557070975
0.471662279330138
0.477810095755817
0.469019899019696
0.47766459308309
0.468440001193814
0.464333550872504
0.459235185316956
0.462436158493275
0.446499025571003
0.454705222544958
0.45112151164747
0.457135196413305
0.445054482512885
0.445215154788985
0.441842676626392
0.439619621991526
0.433780956730828
0.443318915157525
0.432504901433924
0.438166181616894
0.429140490522266
0.433286748483011
0.430822288509361
0.43458086051163
0.428942450377563
0.417426955074525
0.420398651475725
0.421713244624439
0.412793562845312
0.411817001846039
0.404356966833716
0.417307724351272
0.407355702357677
0.408999727522135
0.40549138729042
0.410529654481297
0.403246124193771
0.401869009479131
0.399450948408717
0.40433734061789
0.39295738805351
0.400849456770661
0.396846506489084
0.395271323782056
0.38468857143335
0.392915480280645
0.391991744746968
0.392035757614388
0.381893491280598
0.39070226359113
0.387547324188872
0.387337187437249
0.377335193406176
0.390269579533822
0.387069089258188
0.383836908130792
0.372029302943037
0.37919808865374
0.374199490623951
0.378103042824937
0.370690501065624
0.378308601408378
0.375481313927382
0.371769036447079
0.366823153628623
0.369529678591794
0.366694253679247
0.373759896038588
0.370161496837722
0.370983084160656
0.358489531072261
0.361077287041213
0.359327743452339
0.35845339980903
0.362100753635667
0.36140442985677
0.358400295839681
0.360388608794807
0.360313506599311
0.362437570448291
0.356930856752018
0.361539944559092
0.347144045975794
0.352471287462301
0.351705105387889
0.352118265058939
0.350872051069398
0.353341908952622
0.350059381953881
0.350530365562824
0.347589560539031
0.354322395072027
0.352214786982875
0.3559629241272
0.345080892079861
0.353085273829408
0.35011516008542
0.342889060400003
0.333319070446307
0.340600391600502
0.341510569045572
0.341457096941502
0.334068495194342
0.339742665478883
0.338708409290216
0.343135085914257
0.337933157969367
0.342120252227327
0.344833253429876
0.342243456485963
0.340068149879759
0.335308285482456
0.334031721793648
0.338766530690428
0.339835538680133
0.340975047380606
0.331950916776407
0.331746422554204
0.337336361538183
0.343795466436099
0.335272047671403
0.335174982930935
0.330800712877809
0.333938938812321
0.332691916986857
0.336890243953213
0.335380056573586
0.335739339260519
0.329022584030732
0.328319635223305
0.326447958374746
0.3299217423938
0.325799204993494
0.325113959628615
0.322692712221976
0.321469184647318
0.321009223321754
0.330068198257791
0.323613077598807
0.322701336716678
0.321267368411973
0.3259033508123
0.313910535522977
0.315622281344632
0.322417615029653
0.320445660443673
0.3189234272731
0.321047509070381
0.314184475545024
0.318420565493197
0.315518306252628
0.312727471753233
0.311305075889996
0.314595398366775
0.315646296087722
0.316259562126579
0.310793808384703
0.311830498796696
0.310825763468273
0.312951131871922
0.312576480053375
0.311148602623524
0.305595689839836
0.310058056726382
0.308163395004498
0.303799938265644
0.305087769287299
0.310879753003745
0.303228581336702
0.301638534265077
0.307275752861047
0.307098601009305
0.300103170956478
0.300686835465247
0.295757758509661
0.304323610364199
0.298221615238881
0.295836713610014
0.301058406860543
0.301995757170651
0.29716625353559
0.299165884137544
0.297042856425601
0.298015005125551
0.295948313773582
0.292822962160038
0.285954747520132
0.290562147320544
0.291985721403331
0.286444282608338
0.287658345402771
0.28971034705159
0.286183053754064
0.288665570246686
0.284463657114347
0.285884688822843
0.283859440339164
0.286193492500299
0.281739802061826
0.283880689694168
0.28374299125176
0.280300937476238
0.273669050736697
0.277063796366225
0.276547677214318
0.277781529222585
0.274826964097799
0.276652288386538
0.276803087656491
0.2732378443428
0.271316638575846
0.27468055115496
0.268957407123059
0.269880097448366
0.265328509019429
0.268380938599927
0.266224662976656
0.264355072954984
0.266423806092359
0.264998356624946
0.258985210516362
0.264641652962019
0.259765256438598
0.262221469048311
0.261670788443072
0.260551456500325
0.257131093733502
0.257118573298293
0.25687044337935
0.258557646714132
0.25632722004271
0.255162673096246
0.255487485806481
0.25234133534357
0.250971977875262
0.253678653903165
0.25345244546484
0.249552165722199
0.250292060537933
0.252000834924326
0.250010959672341
0.248478896796934
0.244927344758423
0.24464866703721
0.247189326095225
0.247025259512682
0.243520327507677
0.24551094730509
0.243136350357421
0.242329359567894
0.240658292048691
0.245519208726325
0.24238847626549
0.241958532098988
0.238133805002458
0.237925995274896
0.238276811880765
0.242001469510507
0.238253353494085
0.235131687405709
0.234829112928289
0.235711848189136
0.23410222934392
0.234755303430946
0.233333026488803
0.230248214196676
0.234359634345976
0.23554493650533
0.229372925897491
0.229421172593668
0.233731213938557
0.231838154172287
0.230064351272019
0.230815255688368
0.231820263320207
0.229544341678785
0.225034692476594
0.225907710254159
0.226773859653863
0.229348817960203
0.224223260261602
0.22671556853315
0.227215535733288
0.224849489269187
0.226117985169057
0.227797529396563
0.222713217607723
0.22277466504037
0.225800878622629
0.22340226367023
0.222135584938517
0.222197575675224
0.22247429550079
0.223069084300479
0.222816400589185
0.220603418527653
0.219825287716761
0.218978809953228
0.218487240482135
0.219370833220513
0.218996689896976
0.219817935402576
0.215988728032888
0.215351408799841
0.218244630124188
0.219342599536926
0.216759480288297
0.215185417074722
0.214585285823474
0.214845869619596
0.218734162726825
0.217989008607837
0.214909292465746
0.213100939439498
0.217230111648172
0.212780584223435
0.211218421526986
0.214373520322869
0.213971111141236
0.21183267118099
0.212304510568021
0.205406957124262
0.21029218243896
0.210981763129628
0.211740981940588
0.209840023826629
0.209147068671011
0.210916148476271
0.206593421474485
0.208641419993342
0.209771888453856
0.209552933816692
0.206527058022709
0.207380845462896
0.21131998016631
0.208735793098709
0.204671986225019
0.203898707396163
0.202431645654319
0.206262150153433
0.207346649694807
0.204770194215041
0.202650042632135
0.200898728215997
0.201392266333749
0.201994000769145
0.205178376163266
0.203643817067187
0.201912733729918
0.201961956094336
0.205656404200044
0.203463692145737
0.201850622366042
0.199894097302279
0.197704027327634
0.20156151016113
0.201484277266515
0.198783930923932
0.198016973259824
0.197851266786115
0.200825967424477
0.202189512053495
0.197421395343228
0.197118736245973
0.198213843238365
0.198541308253995
0.19786786431393
0.191825584053925
0.196579551767699
0.193071236153662
0.197040470489427
0.193333372806297
0.198618641136098
0.1977364351031
0.198989338974663
0.194199464305723
0.194930721164913
0.192088665807432
0.190770046370878
0.190481253715251
0.190081954583387
0.189247640180921
0.19101232537854
0.192837692633877
0.188832322595199
0.187497373851423
0.190312899275792
0.186632384484408
0.187592531188444
0.185477155851938
0.186416711282055
0.187757861741143
0.183864892356681
0.183787635364429
0.184651613961951
0.180723415863381
0.182649216017531
0.179843317984942
0.181899602935531
0.178506194707756
0.182208238267458
0.179036090398626
0.179966447962961
0.179590645050162
0.177988935305782
0.177272715843322
0.178173551246652
0.179295185064765
0.175883443383872
0.17184482367636
0.175898408578563
0.17790769233348
0.173002116980649
0.17371492380131
0.173295329720038
0.175657234229883
0.171319736631035
0.172297173982254
0.174070917621262
0.17223574249908
0.173281836640868
0.169561608284211
0.173585537851074
0.166140073251304
0.169806210940907
0.169582377036558
0.167899877849389
0.16608467189614
0.167669251166547
0.169025411477199
0.166327323631045
0.166110818189583
0.164908879298698
0.164939627818082
0.165571311255638
0.162602629550352
0.163616623764736
0.160412789494684
0.160486917225448
0.161823025319861
0.161723547411451
0.159135756066222
0.159662827551646
0.157849285231041
0.161423617249675
0.155811042806173
0.157099218832936
0.155599426971652
0.158000631038789
0.156359834139627
0.162207392281259
0.153817363981467
0.153995653738269
0.155484012566609
0.156200079241713
0.150821722362562
0.153597648279675
0.152685975490225
0.152632613850248
0.148958840743704
0.153965860535146
0.148902454221085
0.151707169057873
0.149828107713348
0.149362391507175
0.14825017728105
0.147604925268815
0.148365235842055
0.151703151770031
0.148288330016243
0.148971845649178
0.144987987204546
0.147351432232931
0.145930157147585
0.148557911465069
0.146103567366965
0.148073730919432
0.143846477541127
0.147098846369738
0.144604130719035
0.145266336441071
0.144008421565801
0.142100683036555
0.140754712241212
0.144744078873545
0.139473285911169
0.144632340583511
0.141483527810898
0.144862257798824
0.143194885526579
0.144707571490649
0.140785743242699
0.142788872892975
0.141126723386206
0.143215517395708
0.138652146825964
0.14159353802541
0.134290265853737
0.139623703717619
0.1340398908751
0.141441891398449
0.130752800351629
0.139754364597791
0.131651746485285
0.143068600545526
0.137876316460668
0.13783340035188
0.13248136458998
0.135728014380384
0.129377721097908
0.138692463617921
0.129365221485168
0.138054171577156
0.129090755496678
0.135817898643145
0.120077104599592
0.135962591931477
0.12267103231596
0.132282748517523
0.126183147830377
0.133078044117262
0.125897418554921
0.13279370244741
0.122492835263021
0.137166899225043
0.118566958448327
0.134509359904749
0.122797608710373
0.133762974096109
0.120893909900054
0.136817495644599
0.117411790878813
0.136458029393083
0.117898699556376
0.135658498251663
0.112859695477012
0.131500150552996
0.114825424030762
0.135819878349729
0.112761365078489
0.136404986635297
0.113366768041313
0.142829477383458
0.118250193881752
0.132594572490372
0.112798247077741
0.129738312669648
0.11322358996943
0.13665842466995
0.121014607886524
0.129669726703495
0.116759567540562
0.126299580607826
0.127126738517087
0.124003792771981
0.128347953451593
0.11558767444861
0.138830355646422
0.113583148799173
0.144978256480532
0.0990255975629744
0.149218572168102
0.100934838569366
0.143391318607891
0.1008049926275
0.146009767110765
0.102969444830049
0.137508699780856
0.112055719606695
0.128900651397634
0.116745964328589
0.126152216629458
0.124097866895621
0.122142845653133
0.124140158220731
0.121185700371887
0.118562606684193
0.12522157305196
0.117619437157782
0.126351173343683
0.118379920879621
0.126713409276686
0.114266353604263
0.121665275758598
0.118520639099661
0.12211856180108
0.121334867746886
0.122924752580692
0.119359611011811
0.118956665171468
0.119189624436424
0.121603451596074
0.116773682356344
0.122673564620044
0.117235342860876
0.119853204719784
0.116607591978465
0.122330462957845
0.118772620938451
0.119477207093323
0.118896450308466
0.123058558286749
0.118531977357259
0.121900551073058
0.119128148018664
0.121017622610876
0.118476036954729
0.120125282302515
0.118932581051003
0.122876172825185
0.118592849511402
0.120045040793351
0.118751005514211
0.121599599317083
0.120909460255414
0.122514918218343
0.117937283214846
0.121505102731611
0.118746896987652
0.121004005512395
0.116402637927987
0.116014514073717
0.118235604199144
0.11917692130585
0.116609658001072
0.117622125680306
0.118289138027597
0.123129372119141
0.118475209705439
0.121725500359871
0.118025597277597
0.122436635033129
0.119153211821358
0.120158297100761
0.119028775921411
0.117156927687574
0.118154735869944
0.121684056163933
0.119577526657856
0.119404351831622
0.116482933800738
0.119256102719201
0.118589328250468
0.117824592201915
0.117248215864792
0.116939451946902
0.120653796566283
0.117101346468143
0.118121003674184
0.119545636740398
0.119556535422541
0.121192500577188
0.121298286034019
0.118816441507051
0.120419229492933
0.119648040379339
0.117738547893817
0.12283135120612
0.118448607834859
0.117949082197807
0.119285966493232
0.121182287575695
0.118066416877146
0.120330694110285
0.118567293380356
0.120104298117495
0.121683331913154
0.119830461233876
0.118544580839689
0.123269189907578
0.119957125701013
0.122908180833636
0.119617941309306
0.119883797799016
0.123833555619389
0.122504845323411
0.12161255344257
0.120992216626038
0.122173129401873
0.123997926555989
0.120967473819639
0.123615306744848
0.121154026296684
0.121845757190552
0.124243422899696
0.120494768930469
0.120449606407301
0.124059232411051
0.121608152284165
0.124579375780568
0.122906154818927
0.123383741183468
0.121491107043199
0.123578435881437
0.124276504489148
0.123412720371463
0.125073411292975
0.123750990356788
0.126767336465261
0.122794665268002
0.125006941660455
0.125027509745935
0.126112301207714
0.123876436206701
0.124806226072163
0.126591263607497
0.125009425720104
0.12325232125184
0.124970663771938
0.125464768517574
0.126240774085802
0.124309166417632
0.125476153548552
0.124917056033775
0.126815700817899
0.126173088343463
0.125060369620658
0.125167686577292
0.125083568127606
0.124769126382262
0.124161380042379
0.125940275890754
0.12741756196697
0.12829468313362
0.127677544520412
0.126783510846472
0.128301070557358
0.129442125305094
0.130969123606125
0.130326024611732
0.126815104960416
0.126500105794687
0.127664360043247
0.128555987361364
0.131561063549103
0.128721260875451
0.129089071764261
0.131594321766225
0.129724774274426
0.126221759172563
0.128798014554606
0.12885531516707
0.129860514293155
0.1295628699552
0.128667195639118
0.128773212114233
0.129778311435277
0.131427612052611
0.126909727149371
0.125618086909392
0.126482682607449
0.129953364413423
0.127122107131365
0.125270111839442
0.127988907293866
0.127386321444765
0.126837452293406
0.124814498829846
0.125744686639253
0.128514736291521
0.127727684837847
0.126139220876888
0.127331687777813
0.124591483242492
0.12404293234039
0.12502359358758
0.127332873576505
0.126690780518671
0.127920809824024
0.124827679335982
0.127380151545689
0.121778536302717
0.123468311816841
0.12439787098876
0.125954933796651
0.125554673756315
0.125332770386771
0.124902796077512
0.126020858189771
0.124879380214419
0.127990817423051
0.121124217410397
0.125307391622622
0.124230763671209
0.121297449610437
0.122638268976438
0.122806784524577
0.123004516197141
0.125379432831145
0.121749707995074
0.121674392415133
0.122585241402244
0.123673361924899
0.122860764807372
0.121931878173164
0.119802915504852
0.122161431495205
0.121335679895647
0.123140382134587
0.120301867095597
0.121204990332015
0.118933861551239
0.120135480674819
0.116591224437471
0.11992077190443
0.119627260114962
0.121400227517133
0.117194235802513
0.118902002162542
0.119498534867907
0.120093105441502
0.118409936550588
0.120021331970993
0.117036565106271
0.117848956920611
0.120319659900238
0.11907245595399
0.116327057159468
0.119979724998013
0.119909339738867
0.117135254979834
0.118016782480228
0.121293906008004
0.118122445746897
0.116700159371153
0.119173926390948
0.118366863413046
0.116366994304809
0.118038037078056
0.117921974360569
0.115950479974403
0.11518626838877
0.120931679447217
0.114725463686278
0.115246404953211
0.116260593673358
0.118190897208522
0.117437109880714
0.118048775510494
0.114067800185384
0.118674681419022
0.114633680480057
0.118166755321293
0.116515373188111
0.116391652730538
0.115424568220858
0.114338761528013
0.115402850575878
0.116267295261578
0.114377192854156
0.115191252615657
0.11201854420649
0.11266540830385
0.116864238652825
0.113683674138769
0.115769241648791
0.112228531671932
0.113437699013054
0.115722203638231
0.112253011651553
0.112803973665007
0.110932788565843
0.111642931202748
0.109980932484523
0.110979634758608
0.109209869524294
0.110211326223374
0.109113934375624
0.109879927573092
0.111081769739576
0.110500573872498
0.109132664692411
0.107021257775831
0.106615842885402
0.108774987397395
0.106906586773859
0.106479708409445
0.107453470776072
0.104670329583077
0.103661177791349
0.105622297912702
0.105686671208655
0.10546622570082
0.102459182717344
0.108790799409073
0.102153842788681
0.104045389110544
0.101603335098809
0.102487266124184
0.102573253078433
0.101654199924377
0.103424701596854
0.103084166149926
0.102075540768705
0.100047278449134
0.0962920246540895
0.100433427197543
0.0981742766832227
0.0987176381167343
0.0965924111885908
0.099619366810385
0.0973703478681678
0.0977156494043902
0.0981490978044005
0.0995410206808892
0.0941695342912426
0.0981323884230428
0.0951028861866775
0.0980674417787538
0.0946178793785052
0.0972391734091707
0.0969287544790458
0.0945460252260465
0.0975080070051745
0.0968630593483375
0.0942357384262011
0.0930949267947673
0.0944943021867041
0.0964344307950954
0.095270425939041
0.0931559002790673
0.0957387138560977
0.0931153560563683
0.0920830183652289
0.0909106165346051
0.0936365967331566
0.0941437008684649
0.0925360751682557
0.0947487455584003
0.0926633157018548
0.0924729648001306
0.0931269641814726
0.0917554432131368
0.0921971241270808
0.0930313930320942
0.0926838890874035
0.0907591706867283
0.093235831184136
0.0909995571926985
0.092187456719841
0.0900973576283675
0.0913288735612651
0.0897257173221461
0.0925381437293679
0.0916771403249884
0.0901851347095725
0.092588224288059
0.089177412687714
0.0917631870933295
0.0911312226001487
0.0919013912376766
0.0881160037459005
0.0882329268113538
0.0885014399307829
0.0863383241418905
0.088352612193547
0.0875413477592059
0.0900423306228765
0.0879316198263502
0.0886365043647372
0.0864637475038343
0.0918943743781952
0.0879588832876565
0.0880060520311793
0.0958936810342788
0.0806259131540382
0.0914377436763446
0.0834452729798163
0.0895263576187884
0.0842044570005641
0.0874293123856077
0.0854466431455294
0.0889792996401619
0.0847798339472723
0.088598692688206
0.0850606148105427
0.0886866759138075
0.084325273567234
0.0876361387226098
0.0856749662998113
0.0858836454900402
0.0821493429741071
0.0882916414402483
0.0816228915549963
0.087067367025244
0.0898042053082845
0.085978195984364
0.0818600432646519
0.0903096754178768
0.0798693884162196
0.0944476711438141
0.0808090009016417
0.0885531235930439
0.0827824120557726
0.0851093894361447
0.0809142296545647
0.0877079286492837
0.0829273901830193
0.0855818068610426
0.0894318912233902
0.082640211304985
0.0857360355351705
0.0842489278117371
0.0845155958691075
0.0834329110095535
0.0861355646157807
0.0835967773562502
0.082693546600471
0.0831262676201514
0.0816824446342628
0.0840254740318489
0.0828820819456395
0.0852531429479396
0.0839666183279248
0.0855161213643261
0.0840368096389262
0.0837518071821423
0.081954287248428
0.0820506438242929
0.0821189757439775
0.0856515489647607
0.0902003906167444
0.0780298397388209
0.0875050056899712
0.0811568929522829
0.0873019289477237
0.0817865991745892
0.0846301298061174
0.083522296260986
0.08556969163026
0.0810118689555917
0.0835425848441876
0.0837180300549475
0.0837708976870456
0.0826648789284192
0.0821356919005234
0.0852829025726104
0.0802734535403895
0.0827046494253384
0.0787311834999615
0.0870071786774115
0.0824380112099187
0.0899403182735215
0.087510885174174
0.0830471047094552
0.0867755291758791
0.0820271838665033
0.0828708631022458
0.0835507384433239
0.084117794103783
0.0798665830113278
0.0856218093598725
0.0802316421401995
0.0842044787623302
0.0804900367913204
0.0849590000867339
0.0825556044340463
0.0858239419848296
0.0798077718141051
0.0852170971468124
0.0797760163997949
0.0878248358047415
0.0773670342664107
0.0860857213675324
0.079844816913927
0.0894742190402528
0.0782367817722443
0.0878356524413973
0.0786510250195744
0.0954636622687728
0.0888694995899803
0.0788356382514423
0.0907924253030385
0.0778084305435687
0.0859914178532352
0.0830765075264236
0.0874306344852555
0.0869453283631848
0.0842612268789019
0.0840479915695627
0.085420768914224
0.082282731874929
0.0843164542155847
0.0825807027502854
0.0840392883573817
0.0908337755466584
0.0829252846699677
0.0867003448296279
0.0876768044595704
0.0791482075333833
0.0982228550674414
0.0789670334073823
0.0887252414339514
0.0854506905481221
0.0872570086443199
0.0868025469761724
0.0882594415637121
0.0857667936114506
0.0889868245308345
0.0880681635538801
0.0839155440865813
0.0874445009375565
0.0843500977873463
0.090644328127394
0.0873066460095549
0.0883589540462682
0.0931871841918272
0.0869555092587182
0.0922642730698936
0.0923113018040626
0.0888831158683034
0.0892139191864585
0.0892942625535236
0.0904329422621371
0.0905399729519471
0.0976549703361945
0.0899716299159053
0.095117686777348
0.0937117724245767
0.0890688273276644
0.0938488993678868
0.0906963247035417
0.0947818454605806
0.0933477135929028
0.0881926592248444
0.111680413554998
0.0844073809663557
0.107231077664769
0.0863449519295618
0.101247569555867
0.0856879320276484
0.101071288245194
0.0877420158674594
0.102866800051582
0.090999454996685
0.0979661015934605
0.0979236218334499
0.0979190914739294
0.100963779249095
0.0944520769614037
0.100625798647317
0.0966217263349788
0.0997929326842221
0.0991484147782267
0.105519232655836
0.0937436290839796
0.119703501218239
0.0991605959557723
0.101882109968151
0.107117552782174
0.0942448134584324
0.116217756745061
0.09956419697532
0.104903812124836
0.102959465018377
0.102489234399921
0.107711838244531
0.100511610997694
0.120648061589898
0.108854106705674
0.104128649137387
0.114089520881722
0.105345200053538
0.118456792460413
0.111192807737124
0.112485003610343
0.110065902276569
0.115816532211116
0.110881924841068
0.120973417904842
0.122120761314524
0.107022738874143
0.138313716669725
0.113597842663392
0.132736332070631
0.116118301255295
0.128443298266606
0.121514304886042
0.134202977515031
0.11991871380698
0.13176686318906
0.124052460056957
0.147402421307569
0.122819322547001
0.141833247603832
0.132791920443311
0.139023555599264
0.147003606807221
0.161353685071059
0.142741081104453
0.150413908779179
0.138841766060419
0.159200296590378
0.147328854454629
0.151655196656672
0.153178458696525
0.152630686864274
0.155024319140962
0.157707882710279
0.159963259245274
0.164236090116577
0.160078938193105
0.168760633416795
0.163346036888238
0.190242698868838
0.170124001726589
0.191452469961472
0.167679252805587
0.18448240062601
0.173749134310722
0.178684224205229
0.179664746793409
0.178247436253725
0.182869574992569
0.184435973775144
0.186542582897844
0.189502108536105
0.195063994625332
0.203553163854784
0.186915168446254
0.2200434200771
0.193871458685048
0.219410141041454
0.188566950093597
0.280167717363357
0.221263560868052
0.218858000636945
0.236851164758931
0.22466351019762
0.281357414632312
0.24419410709785
0.250648705179351
0.262586549020262
0.265019084581748
0.272247925115629
0.286016455140751
0.284011142196758
0.298398282950581
0.30584457030948
0.303554864180627
0.312846667346596
0.365522340086744
0.331231090582401
0.346691654824175
0.342315970384596
0.354796486730557
0.370864985863051
0.37813200095952
0.379414391702526
0.399010064851345
0.384347868716503
0.453556045513272
0.4120869006777
0.434687744490378
0.429906884138558
0.461543949566229
0.452337538364579
0.470183120947722
0.499831702846237
0.468541893565736
0.499444043950979
0.485422649577205
0.513223103725389
0.506655864612683
0.540045721832795
0.535285158611018
0.540314893612615
0.551943855838014
0.557057888689085
0.563933824109911
0.571065419771497
0.577864763561612
0.581824331653749
0.598174780145707
0.607036724259229
0.61037479319888
0.611398052120139
0.578161094697631
0.600683735064541
0.57792504843638
0.619145082327395
0.609780662956936
0.635993445747406
0.62346255683739
0.597085144109754
0.620136614846962
0.614234674151655
0.619073800039534
0.613330275162569
0.618843827518409
0.614805879013908
0.606891551955121
0.629850131504998
0.599150281065709
0.686940806064448
0.606776852680018
0.626560811794848
0.609512736676784
0.618079249742191
0.611967408265489
0.624698094790203
0.609063045082503
0.638457699529529
0.590835752948558
0.586568222210191
0.591939236443531
0.606251068502275
0.606163045519638
0.564870812482622
0.564295753883395
0.558899289252587
0.551219782077451
0.557116456307106
0.532345933141637
0.582196769223928
0.527700407387336
0.518947907886871
0.519272296260275
0.511200377299054
0.502932229737293
0.51138552863408
0.50651189698905
0.49642531342841
0.487387241522478
0.491695589391455
0.485304817109847
0.489232925582002
0.484766977840958
0.477393681644912
0.47613664220298
0.46769146387357
0.466113022651219
0.46390137888601
0.459610595466933
0.458241037962567
0.458191681781112
0.454113698384853
0.454226284488535
0.456580317895017
0.452240253302229
0.44698592734445
0.445242043212569
0.445999847457722
0.448403307156819
0.434930817339153
0.440080726789076
0.437571589762311
0.436352622580291
0.436406757612867
0.435555188263385
0.431071823754073
0.437344855894864
0.435082759778693
0.436013508528453
0.429105267303665
0.42809688023457
0.430519576001325
0.44384919159816
0.453239725008665
0.41293025412455
0.425435256959292
0.41416009108296
0.420806690288256
0.407636958930199
0.412919691030784
0.423673794556772
0.411056875927876
0.412217470162248
0.40467544640936
0.398917207684798
0.417776034231271
0.403552921526895
0.403699916335394
0.402406646609169
0.3898514528478
0.471166372882961
0.40863793366508
0.469235252216543
0.400229106205002
0.401366863773313
0.393461428037366
0.413842801824167
0.392836155044326
0.392171893446694
0.399126168337075
0.388283330140936
0.409303716954433
0.389267877317622
0.395927381341242
0.390782480011818
0.389881882682768
0.402886579355625
0.390371598156712
0.386778041395994
0.401038273908883
0.382039573420367
0.38869352913657
0.408972092440711
0.382841776580639
0.370254626698374
0.36990028238723
0.373208949272416
0.366637726347484
0.378325239138481
0.370555980592909
0.356976932811712
0.365585238931836
0.351257296029636
0.364493781654986
0.349007859737942
0.362292924961693
0.348983374683529
0.352008412321407
0.345356114105311
0.332482542991552
0.357006930810074
0.33666946301772
0.358298371846593
0.334116073799308
0.340397818271875
0.333783296460222
0.354078580393515
0.333908826542534
0.331014737608566
0.327538635568921
0.325248862655671
0.331842067013913
0.325037019327607
0.308470940152541
0.334908135552887
0.316621095126913
0.324523473652651
0.332738998149998
0.322255264893792
0.309535864310115
0.306533254934959
0.310201846874645
0.309564879499712
0.300366800586797
0.317587533415658
0.290434740410132
0.320964194672963
0.30529830201157
0.318067402782016
0.310845371953756
0.309523009365778
0.31192698863714
0.321351011746284
0.316747160137047
0.340101798342918
0.323025648896514
0.335666786148383
0.317647096348885
0.340503071902736
0.337310480222198
0.343898665526233
0.344662241858823
0.349628763794911
0.350930504943131
0.362522862710607
0.371898103889328
0.376601444730309
0.378949106925745
0.393536295693259
0.388132126413633
0.414688524552315
0.409631891732366
0.416316858713426
0.453092505030018
0.433743233776189
0.462625197833902
0.446105831813644
0.462156754884007
0.470205178794094
0.467856196951175
0.479975248624956
0.489358831676905
0.505083294716945
0.506201101861776
0.506971363203925
0.516585544254601
0.515079054945808
0.534047355734986
0.537246984474801
0.561098246382908
0.522031720949567
0.564706203853467
0.552066562707324
0.560770179209792
0.555975135226235
0.557136658191369
0.571799383829339
0.558173912388663
0.567781726096177
0.570824205697102
0.585123992663121
0.578733260528854
0.573400089026334
0.581721631827708
0.582901831024376
0.585236577846391
0.584454779891696
0.593729763543512
0.600526558998424
0.592515036063231
0.600082727498636
0.600136976002659
0.629679963923844
0.629043696990686
0.605976372815763
0.62206360457258
0.624082160087057
0.635402934611439
0.63602655567903
0.63954316355184
0.640652039467334
0.640410205253643
0.647923982300602
0.651463939714832
0.652160073972536
0.659323533530074
0.659261448516078
0.667649104735183
0.656017292670714
0.679497842064973
0.668898768121256
0.710110224315362
0.691149354893487
0.689796563293893
0.694391652176828
0.694392321785569
0.689644671053104
0.691033033142961
0.70250432311473
0.697886792956253
0.697652641625262
0.701133182959178
0.694429083142435
0.690810398032982
0.692724706601393
0.693258179665064
0.710339389095285
0.694675097464408
0.687665576268339
0.69735392753954
0.682852321663354
0.682625515921519
0.704595561376964
0.69934428519008
0.681661462165373
0.68268660116465
0.6765392555627
0.702411520637813
0.691557334791859
0.680904523368341
0.682441215256954
0.683021739506561
0.679840037168688
0.687157561205293
0.683756166506557
0.717172580425223
0.702868850765903
0.696313888841123
0.704161387464394
0.700321475836383
0.708824252918154
0.710896279139054
0.724670152977633
0.726259092474641
0.726608136598341
0.722473041996211
0.72812282656066
0.736174124195699
0.735261663239508
0.740932547263498
0.744080860596967
0.73871127564326
0.741984618215534
0.737871026203514
0.739942376470868
0.741153037137783
0.732705894925335
0.7312674592615
0.734210495129514
0.721372345685126
0.739144928637773
0.716999017964382
0.719692414705336
0.716733733898369
0.717355551093607
0.705130890193605
0.708020454774917
0.695292115541896
0.697767742388696
0.692804175606279
0.687969479002703
0.686703296839413
0.684029287429804
0.681962867601235
0.681004217779437
0.671835786905261
0.679972980244689
0.680471813454269
0.678016242913368
0.673286160512174
0.675270840779888
0.667159040395293
0.675711884181237
0.671310973329801
0.675094342536473
0.671115577775884
0.683946836303521
0.665491913990247
0.673952951328201
0.672009394211627
0.668167391559133
0.664452298225611
0.664207066473171
0.667766197627864
0.661270867432898
0.671630333851979
0.660505527810756
0.665663094149755
0.664498722643157
0.660902393524338
0.661393529240388
0.661037866000055
0.657880684104214
0.656460746039892
0.654587359461571
0.652481689347737
0.652347336754357
0.650739845796285
0.654216577192243
0.651379441198349
0.642535807898724
0.647572149734974
0.654453156474514
0.650594598386133
0.648770564191091
0.646236282098236
0.640523927146211
0.63944949733434
0.642756403759569
0.646093935235455
0.646734660334646
0.642677399606338
0.64392722237747
0.641431238055209
0.642389524621892
0.634130041428664
0.638133528287928
0.629039288002918
0.627396158338459
0.619934411178696
0.616554205209024
0.611631036692163
0.608051593033433
0.604176896504172
0.604533922816346
0.600529563075376
0.587873673074592
0.587417196848685
0.583524728092047
0.576698623908214
0.582736190126401
0.576100886395161
0.571796506415612
0.568762895307733
0.567171739519377
0.567929564841811
0.565183488574307
0.565606931707585
0.562090507604516
0.559084200441433
0.563314079881574
0.559021791956713
0.560420370250115
0.563466519065162
0.564298877138247
0.565910374434759
0.565521683299245
0.569777830442903
0.568637412640416
0.570367963476993
0.574172870924709
0.574450884087104
0.575450781697909
0.578203299986015
0.58074583928003
0.577109371091323
0.58874973936521
0.585027312809069
0.586971723371254
0.588377365792454
0.590726416797021
0.596774659677114
0.595339680159406
0.59014656477756
0.594832415087937
0.594400143330886
0.597182617830549
0.593118995528179
0.59342099376154
0.595593451854242
0.593437614390029
0.59095259734746
0.593135433464529
0.59623166259683
0.588792855940108
0.589555700645341
0.586442987815833
0.586544630057281
0.586521360535807
0.586274712078805
0.584491754916397
0.580310848054285
0.581345166394971
0.574057220078674
0.573374992253206
0.575304256030032
0.571768838464793
0.576337103539168
0.573610918764191
0.572781853249966
0.566886752554355
0.566021204144583
0.566027297099327
0.561433059377283
0.561154076838812
0.556070133241341
0.555576309005749
0.556276799270543
0.552429343795561
0.550463782208418
0.549964163844299
0.541954364887118
0.543143867614928
0.541006086197443
0.534663149094339
0.52944504562337
0.534827451271917
0.526435732000022
0.521919880972594
0.518243947332525
0.518621856912033
0.514340788441113
0.511177192888327
0.50897133071581
0.508210927725092
0.507155440340733
0.498599652823634
0.498732132883418
0.496718611667366
0.495408846625915
0.493735610529076
0.49545504994347
0.496763680680518
0.495540581671614
0.492450179624288
0.49099376798317
0.489373109274425
0.486076212368864
0.478918476560913
0.480536376348106
0.476884647272435
0.472913379504486
0.465296785117962
0.458400884040897
0.454313632529081
0.449132117634923
0.437586884393332
0.440535553724193
0.435162118308852
0.428775001207506
0.424929764307534
0.424842571991066
0.421442396727382
0.425921239696237
0.428388315957465
0.432885217548079
0.435708781294552
0.442288306223654
0.453444870257103
0.46241822528413
0.472231578592871
0.483586846800252
0.504253726951906
0.518239054985394
0.532990895119463
0.551413681370395
0.573005427457786
0.589254186192494
0.611421631335299
0.627480672119488
0.646008055453855
0.675058766291673
0.688968224525896
0.707275740022108
0.734705116462695
0.755132611639275
0.773450858751593
0.801166877639102
0.827117777916703
0.845701655793375
0.858459303760428
0.891386765461883
0.903033119866543
0.916927631684706
0.944760766541327
0.962790433434154
0.965685758382281
0.970542636438889
0.986576906154751
1.0020852200837
0.999430985395609
1.00455532263418
1.01846415586993
1.01027085879998
1.01438867463961
1.00606845617335
1.00664862116492
0.998579982702245
0.998200810483828
0.997041837665945
0.983821974629047
0.980881195680824
0.987691852388906
0.980670829820593
0.990717359009252
0.986790010330717
0.990095242721715
0.990832338858902
0.992434055621084
0.990258089432229
1.0056789954479
0.997397422510957
1.00300189121362
1.02747619683237
1.02773168996558
1.0416022965074
1.04373834771274
1.07059728746146
1.06427549753668
1.08480035248041
1.09393639737183
1.11632396685432
1.12650377039471
1.12273173266555
1.13796906093308
1.13874285473422
1.15528972888212
1.16393035207901
1.16117584530957
1.16927233261526
1.1801767419785
1.16099217959052
1.16549122217093
1.15494538902663
1.16130940494625
1.16840731152939
1.17099464129271
1.1638232357398
1.17733185040424
1.17618105541376
1.19313330189807
1.20716325949525
1.22094752715911
1.21502251750576
1.23805100209345
1.22730819070554
1.23645683682607
1.23843536584566
1.28068917014528
1.24793532934288
1.32033664401186
1.30826515768098
1.33205470434978
1.34183210138303
1.3524326517953
1.36858584639795
1.40240533626759
1.37853687291675
1.44734606747604
1.48283555966768
1.48625473461949
1.51829273211207
1.57801336604519
1.57630875279606
1.58215895166515
1.56416900346456
1.73828910217213
1.68935045897484
1.6871488268104
1.72290353925906
1.78493086268678
1.84909509155722
1.80626429374428
1.83772830684374
1.79685886738896
1.8429133098347
1.847748591684
1.79239355811369
1.84076573423375
1.84601082839002
1.77455996302743
1.84188524079315
1.75270659736445
1.77126751104056
1.72697901717052
1.77260784788444
1.79528233215105
1.82951631674274
1.77252781595806
1.80372546170624
1.80516839126548
1.81081679502566
1.85255721838525
2.02072734781148
1.89490954899616
1.8821777496584
1.92014233164329
1.92953476012837
2.0189104657384
1.95865391345801
2.05741421395831
2.02856878193678
1.99531578924119
2.04820271609523
2.02371396780395
2.84881461832719
2.04270939945755
2.10042395146339
2.06356343529208
2.07910451103931
2.22925796360633
2.01176351725547
2.00076602297147
2.31041394727131
2.16833459355938
2.2751817533664
2.28041832809371
2.36327502191147
2.24144168472065
2.46075130418838
2.25924797681902
2.39544817578029
2.06049551085961
2.6953131727328
2.40856609008467
2.40514471154067
5
2.41638859796516
2.26116572032247
2.40819181151651
2.66327357374376
2.63115432552818
2.66625685333942
5
2.50765946812499
2.29995507273371
2.2994279457687
2.33730716647341
2.09916499190521
2.5451429025401
2.3042888134074
2.61437667137094
2.32277947913576
2.4052861630782
2.13748854059081
2.11902962314668
2.04767256718406
2.21609215595985
1.91074844577047
2.3725254630556
2.06437315510231
2.17958209076924
2.03688947917496
1.92955438792005
1.85883112189922
1.917095781501
1.86628107455
2.08249522808759
2.00397206458947
2.10400052212179
1.99269698455988
1.83478713919932
1.87972393539859
2.00127874466305
1.75953423318269
1.81570327585655
1.7148748653795
1.84779960353501
1.68435280060987
1.66876997198432
1.56439911819869
1.64127931056973
1.50613221461581
1.49446733323595
1.4825536607145
1.39710442110868
1.30829054873326
1.30796408557586
1.21272562419935
1.2171908266635
1.14754326948534
1.1179289042281
1.06091969216571
1.03617697311847
0.988681482935993
0.957005955763684
0.902282666680056
0.89290792812978
0.863384652531348
0.834839422106006
0.807601622539141
0.806731656681539
0.771678674896006
0.764523060893702
0.741445707944129
0.73954140419316
0.723595834160331
0.721533129016678
0.720389977598887
0.711904835521704
0.702397599163298
0.700105189531466
0.691743164372522
0.698906759750214
0.701986345697158
0.711427912763305
0.707723133875364
0.706038589753763
0.707298170409228
0.716864226058819
0.711500502905794
0.710145061489464
0.71627108739434
0.72903905854113
0.716486498162804
0.720280751828487
0.715275923241797
0.706874910241709
0.715425622648255
0.721924337079094
0.709452556723005
0.701573619453615
0.703409778333417
0.715688960086316
0.710784066843245
0.716409324580541
0.712868304674795
0.707588191375005
0.717109017565701
0.725092744414759
0.72159259943838
0.734789357149423
0.722503104691943
0.729882890413667
0.716964017596585
0.725843609247269
0.727041521179636
0.725305643998461
0.725440632588141
0.713443085657401
0.722863496842414
0.731996236650292
0.712822505008544
0.724153239253259
0.716943770507074
0.706332973970702
0.703623610298132
0.709127870133384
0.707254857160824
0.704142125626841
0.717433511454094
0.714045797330834
0.718948093245044
0.726834630078942
0.73289496334165
0.745636736199585
0.738214329301827
0.758881655743766
0.770549788266996
0.801664609244549
0.793226386417766
0.815723061624258
0.81844365771287
0.823582416800186
0.863265234277024
0.868026350802725
0.839671497344288
0.861196251587305
0.845188670681247
0.850914480126138
0.81300564337904
0.811237823652847
0.78910827028691
0.797709062932374
0.771621272410545
0.782970827555824
0.757225388465988
0.780294037603304
0.77115894981238
0.763745635980672
0.759441924032624
0.773737878288116
0.761824604050026
0.772564342136027
0.769425999103231
0.775446512517667
0.762474267586118
0.750687361726355
0.757375395078631
0.77610171354886
0.744052776138921
0.744073618740565
0.739363088416696
0.747810869571168
0.732789922904175
0.747845484115328
0.734561312328148
0.762170669374147
0.743239911967485
0.725779203294067
0.721692235855874
0.729257284161082
0.728918906274768
0.715240264649868
0.72319279965726
0.734707374606961
0.715988266060701
0.731489313220849
0.71145067189213
0.704614918778641
0.716623080575806
0.727963294654498
0.713749511230206
0.716397875203008
0.701626695682956
0.711599937948323
0.688071895071448
0.66663237764235
0.698881852850041
0.707428048286192
0.700988588479189
0.702564200460348
0.677166067426383
0.676945802434794
0.67337113784814
0.70088805110542
0.686220710158008
0.683472927266578
0.654766003512046
0.66022763139981
0.652013876688125
0.638967639856191
0.661335034106291
0.66304378883157
0.635954375514998
0.636444160409693
0.627446827499327
0.659161010026293
0.654878227823017
0.653904352800203
0.641436831651399
0.643769191166936
0.637370917885421
0.642062302997251
0.646175566504171
0.649955018739676
0.656316728891727
0.668916734588073
0.650119539478123
0.665292274580956
0.656087818284651
0.688525176645766
0.685306603480574
0.691339012649826
0.671720579772565
0.686154439021029
0.682536856092755
0.708875691272035
0.680848143939043
0.701073905104812
0.675198022733919
0.705609775673568
0.708041265210532
0.714811714041822
0.728389220691861
0.766633090068213
0.734624547725555
0.768483429516174
0.787777712923504
0.796866186324915
0.804099253459851
0.875665625482241
0.832427110218855
0.868375008800406
0.854230274751532
0.887279395958383
0.985624690306825
0.934295522640363
0.915014103312359
0.980885911665407
0.94394964315786
1.00767158823632
0.985371584481779
1.05496730398644
1.00247505768741
1.00938852697568
1.00465864812449
1.05635141396276
1.00227618212978
1.01784278135736
0.988682966148197
1.01459356801681
0.942021128853661
1.0470412978436
0.989917157252661
1.0132262411849
0.944062742609131
1.06737788106577
0.98330361881207
1.03995669118477
0.991139606817107
1.02752399883701
0.969540515462017
1.01394440982323
0.972073142066983
1.05404238042246
0.976805060136598
1.05315937642208
1.01096419463902
1.00008431000228
0.954158085599815
1.07288018591789
0.953989486147198
0.995982839806873
0.947002769762549
0.982610478626796
0.972818400256945
1.02742601614793
0.876685466459033
0.911629887363164
0.945451880556683
1.0058527618725
0.963925581554929
0.975747527596108
0.858095955278795
0.949425425848327
0.978400855428026
1.01314063420097
1.02232733700721
0.955706389265941
0.943509333696649
1.00150559213143
0.933966560803196
0.881381135743915
0.925967136589209
1.00502647841958
0.92737305582158
1.17480359629645
0.9606836551585
1.07988795342059
1.08870866488117
1.02096158580497
0.947721266707102
1.05552070272613
1.01567366754549
1.17424139938876
0.916103241372496
0.968067955442886
0.983522816508467
0.970939029093312
1.0663920965024
1.24283958298766
1.04878990138628
1.19623732184
1.18062799170481
1.13954880965401
1.0053114001499
1.11387349456098
1.15088519059587
1.47361189088043
1.42132315376309
1.50479665882664
1.09273337917899
1.35831938391503
1.10006921266831
1.32464526960273
1.20032997700375
1.8095850213491
1.39901541614217
1.21162763274933
1.42359880515064
1.32818096043566
1.2872576608496
1.09438030363119
1.11073944262064
1.46858239880001
1.08272247776645
1.15477549778004
0.991581545981916
1.61264559393747
1.14815269499195
1.30867671555764
1.2375334461717
1.5320869780125
1.29457918691795
1.31282571061677
1.28106908858916
1.24077161436234
1.26005259378224
1.07781323928927
1.1516265370288
1.52984548652389
1.032785253107
1.32589809269545
1.18314757137302
1.56159800459624
1.41690524126961
1.27829047178587
0.912757988827294
2.00016465881095
1.09575809725791
1.15964016983493
3.13071547018911
2.15169526367925
2.50657799151623
5
1.14757968517203
0.798178745854447
1.31732429720775
1.13796816877664
0.947676550364885
1.09939646854397
0.876048847990775
1.69679968476005
5
5
5
2.3758051342714
1.335478057613
5
0.929834926107856
1.35990605200584
5
5
5
5
0.931133217851032
