3596
4000.36533379555
650.420452594757
1
2
2
0.0657948435421369
0.0502334280905136
0.0647363798561859
0.042359135878862
0.0609603938548944
0.0434318476276525
0.0595378603547629
0.0415875903229382
0.0547501289485997
0.041582627474125
0.0569030101506163
0.0467407191675101
0.0541312704186293
0.044523301108003
0.0508993385379358
0.0379927506310499
0.0512864333499007
0.0397361820495037
0.0608506152031317
0.0431140123667093
0.0589690519045714
0.0436075479791844
0.0626226774605649
0.0399347201876324
0.0551011272541008
0.038608775514182
0.0538298884478607
0.0473515511203942
0.0634235009777893
0.043387789946519
0.0588252542391674
0.0436921840432686
0.0503970867592708
0.0458591179002065
0.0530851575820268
0.0398818374311144
0.0593452579941389
0.0445868447892098
0.0594887676684978
0.0344574627277587
0.0590741939078953
0.0482462301444086
0.0528442724451275
0.0398109492662007
0.049286626788786
0.0396935966626772
0.0518644561441502
0.0369556540457933
0.0593833194643221
0.0438265341894098
0.054473249553618
0.0412043892751167
0.0598246296075637
0.0494442983608229
0.0454227586050064
0.0405796404623294
0.0444153586753236
0.0381552121965408
0.055145610974103
0.0425914697589129
0.0477587945444609
0.0437803379613164
0.0562588909876781
0.0437212170655697
0.0479847850447785
0.038338115975631
0.0496340185408863
0.0464641123801223
0.0509171951432747
0.0436127949604908
0.0456448735425278
0.0336944082656668
0.0570032691921866
0.0313706420891121
0.0521303049329439
0.0392724309796413
0.0555181174886236
0.039634799496591
0.0468970685408483
0.033187206377782
0.0523312721475055
0.0361910195858395
0.0531015527004651
0.0399147779764492
0.0412950768084421
0.032934395988079
0.0580174433090439
0.0333207580127499
0.0634994223841427
0.0302782189265133
0.043604307143646
0.0332089628598079
0.0466147357137864
0.0384952338476599
0.0534272661172885
0.0353854112014049
0.0504608223915237
0.0328826799578709
0.0528666347052313
0.0294594690770615
0.0603151699043509
0.0268642816726669
0.0752646732585021
0.0315628869030233
0.0405866353237478
0.0538413168643637
0.0320360410553892
0.0455325624170205
0.0428456351761884
0.0415227544843583
0.0459644676013638
0.0354703054938274
0.0415514800918976
0.0309369735377124
0.0531211264476936
0.0444972522186643
0.0481367162113187
0.0337962256944411
0.0436522072968211
0.0289517188800165
0.0570657586602541
0.0291735802233911
0.0715203371199545
0.0209036046722963
0.0504573593673352
0.0339287476961689
0.0530795436341824
0.0314304140646247
0.0501637121696888
0.0285373450481425
0.0484898215643849
0.0291861394608497
0.0587658374182939
0.0205199041906926
0.0720167280133599
0.0308938660113104
0.0488084608656113
0.0412465672807874
0.0423255298360092
0.0255673308234414
0.0362686553193804
0.0304638924515207
0.0474542096739985
0.0405709203204798
0.0624485628697673
0.0214608936911818
0.0484444842091361
0.0386497317072499
0.0456049331094595
0.0184350565061904
0.0501580562016986
0.037732629616792
0.0457534004823397
0.0378615119318139
0.0633850229492076
0.000388499143140328
0.0887433904556462
0.00832071145058254
0.0661596427382418
0.025718347555739
0.0471978215592886
0.0341829779599549
0.0415873873691634
0.0361291240510889
0.0376067825350473
0.0379379189439537
0.0407900893170813
0.0414578765139262
0.0470957714804493
0.0465209798044375
0.0472614653916425
0.0411145043918213
0.0526663691761655
0.0185034283504995
0.0437426333871727
0.0154827429917307
0.0643636251378819
0.0249330911389056
0.0481726690049915
0.0217013952088418
0.0476858441753092
0.0271214785400677
0.0439000220775364
0.0312360279089417
0.0495108242257077
0.0252088507079896
0.0479200895474715
0.0246588583402853
0.0495714512928809
0.0319342964168505
0.0638987487913646
0.0225590186859561
0.0600617946912545
0.0222311311443468
0.0441888333011776
0.037514811604498
0.0384352950749668
0.032553267852277
0.0315800612558366
0.0315842863797954
0.0422965115449487
0.0307605963844889
0.0418597284560319
0.0271323871166514
0.0531056840748811
0.0281050074884254
0.0423056370871264
0.0383853779182248
0.0419006184332908
0.0332858924298594
0.0514950152417885
0.0331387489033032
0.0355574763773178
0.0493528377235572
0.0416715638297522
0.0425921320571739
0.0352824417074335
0.0427985950712865
0.0476450970558368
0.0271192972990224
0.03815194361823
0.0303982570683481
0.0501688943650701
0.0335042967052374
0.0396117486496232
0.0354352893614538
0.0393675429715378
0.0385670159621838
0.0471574493896618
0.0384390340745372
0.0462166751582323
0.0426275211053565
0.0487940389937433
0.0323046633568203
0.0582461710189431
0.0382276062667636
0.0507855441187058
0.0288158744228974
0.044895191298547
0.0337716356203696
0.040190825920626
0.0279115201574776
0.0443789244542133
0.0267604378281305
0.0441894311478722
0.0452719903675034
0.0466061114275843
0.0387309752004687
0.0408715264689001
0.0542454548541094
0.0335886827446019
0.0583230527325229
0.0336869223997321
0.0433605241520225
0.0336403487612614
0.0560701333240102
0.0392150381288912
0.0431075400643974
0.0530196158740487
0.0451687051609568
0.0380393677050225
0.0474478097462714
0.0447838615462343
0.0493771639046063
0.0529302031828776
0.0299259000474645
0.0714663572793959
0.0381732815346881
0.0424352302899024
0.0501636676273939
0.0379202519934338
0.0534507760769344
0.0574019236104058
0.0285285831564414
0.0500715687934211
0.0438547302231928
0.0470936318424115
0.0322001102055605
0.0540894677813088
0.0313708150631916
0.0637097319019154
0.0384564591544229
0.0742855194623976
0.0388208556864502
0.0396780467269071
0.0650528170915162
0.0418077658709513
0.0556807626308704
0.0362878098157718
0.0527842332281496
0.0486053229270798
0.0607225749792856
0.0414282830501339
0.0598041715157689
0.0340183476104802
0.05290752017655
0.0470536956036055
0.0450713907453572
0.0533095187651913
0.0520513791402568
0.0555518227757771
0.0511839617537762
0.0507578536120007
0.0500638960584677
0.0584276447999183
0.0481645050084501
0.0630906902073192
0.0508528572536813
0.0567007833632115
0.0567743912583483
0.0550548627505604
0.050274410551874
0.0498347165953261
0.0515617376934555
0.05433389319908
0.0561434689402593
0.061581115217748
0.0496024519738229
0.0662552240844113
0.0512482468571421
0.0614034589035717
0.0511005049961692
0.0629699621569369
0.0522475563018435
0.0623585487543207
0.058813136457729
0.0648194813278072
0.0561166361856516
0.0583807572046974
0.0726591012535328
0.0605044752654978
0.0530273736626135
0.0905743343735868
0.0498154452415209
0.069156868176325
0.0544757082879307
0.0760415358923796
0.0712575625067128
0.063276052366474
0.0607503692157185
0.0680772815043035
0.0703741843257322
0.0773224746197402
0.0698150143720384
0.0781562891665431
0.0828351874432666
0.104213622618102
0.0884832311337529
0.0684761803254004
0.0743282645673514
0.0735370854161189
0.0973549636880379
0.059394068958617
0.0956461253541277
0.0809521812044161
0.0776505175745083
0.0922999881939504
0.0848986574674659
0.0887660396677489
0.085864174334707
0.100891813443406
0.0888230180004227
0.104939769494656
0.0894432559224628
0.109841079687216
0.0958214065494873
0.11238377679119
0.101952100642055
0.110894444252307
0.1065127957862
0.115986348714665
0.10165429863931
0.127882806559572
0.113791422060869
0.157179352796731
0.0876317030748342
0.138833645624553
0.12641126763024
0.115784439741538
0.12695846759068
0.120822544988205
0.125872174986218
0.139088190898829
0.133679791497858
0.139332556689361
0.139504381424836
0.140140592741156
0.153518438117208
0.143504490611475
0.150099744991985
0.157587879133285
0.172295776718779
0.157224384114062
0.164167475994145
0.152546590116401
0.181653471684332
0.172590642725329
0.196823516643274
0.157292127026518
0.165466949561155
0.180243557191359
0.183818498001911
0.174869797918024
0.183302835523343
0.190861826982516
0.195488026695081
0.218716542928512
0.201209625350534
0.210978039938677
0.203418060129543
0.198692074672558
0.209970227630814
0.209149737057007
0.226583596659921
0.236148028103149
0.225885332636333
0.208552345013601
0.240962928972041
0.222576469776628
0.236706876793122
0.242843945908636
0.230731884972151
0.243145936999404
0.238469142300311
0.263064343352424
0.252651901464172
0.267384932007857
0.25787354704967
0.269830632392899
0.274570437242988
0.274048386942698
0.2740560303208
0.287007165576563
0.286846778043688
0.295585807657342
0.292561495263117
0.287681711645647
0.311076008533839
0.300853908083207
0.333540136837506
0.314001885114562
0.330227165158481
0.318061409985288
0.297888943436733
0.322741911585838
0.32982600312061
0.333082306409227
0.332994017457702
0.346681181910569
0.349895790132683
0.369044497559196
0.368912102372165
0.369941972832625
0.358419203067864
0.374675475426204
0.370806112355539
0.365696062601339
0.395413864430521
0.391361926011395
0.404938757138031
0.387905791353341
0.411213036273423
0.423845485466147
0.430439168622162
0.444926146245646
0.422104264391305
0.406552105708759
0.421711352482305
0.425362288090229
0.418257480853627
0.448015317663013
0.46601032044247
0.473927909613474
0.449974739754403
0.448674139257356
0.461675353236396
0.475327119201628
0.485968605814919
0.468663201022421
0.481180340588316
0.5067449711094
0.490036210426516
0.499223555437063
0.5110392531007
0.539318267399834
0.511726134292801
0.492829764586863
0.522968851678374
0.51812491135213
0.515150353801302
0.533685913683158
0.571328404301618
0.541670776941522
0.562776811140043
0.540462357827904
0.557663157687619
0.566156983810725
0.577917795399564
0.565263491929215
0.596338985207883
0.591633807010354
0.61321449911014
0.58859114256969
0.624741866301755
0.604991691606917
0.619103517226743
0.620739039968887
0.651660631841529
0.635006739029832
0.644824358485775
0.628820549805662
0.699967930596299
0.64896015107179
0.644997836793707
0.634554975421054
0.696819172417374
0.641411309629769
0.681545235993027
0.687188383835833
0.704807930739736
0.657964488099619
0.716719436744056
0.685932140257725
0.750140977435823
0.713800584328989
0.768338056347855
0.698091456199791
0.748425139373204
0.743188817883385
0.730586597263542
0.741815588454546
0.779627434424637
0.739666529401795
0.767062326626607
0.752663465705084
0.793869049497155
0.814127037934727
0.815760497086965
0.792596682710086
0.826920530563995
0.770033287897615
0.769561138486929
0.81338522115914
0.852764758116378
0.862659905442541
0.90490742413253
0.841288959323602
0.85452243989358
0.872600766261186
0.89433893476264
0.836241222893219
0.849054208770179
0.841417748722703
0.897943213163571
0.875603859133844
0.893923937045365
0.85169943828383
0.906525980176506
0.899944111600429
0.950112512982808
0.895425526498725
1.00507326332609
0.947196175764323
0.993581089306963
0.901299963948397
0.899020282229627
0.931475105420399
0.94865191536712
0.8928849543892
1.0141180015843
0.947198697640985
1.0267985197347
0.998859079855557
1.01134642745867
0.948270593925785
1.0596805140399
0.995741480030198
1.01379838998818
1.02118921200487
1.00977911162776
0.967751363085975
1.02271195267771
1.02187655160631
1.10403942572019
1.06667762374945
1.10586079508196
1.06372897091486
1.1949828078248
1.01737431423019
1.16874561996053
1.02472719213279
1.22038697132913
1.07212014409635
1.15400265323309
1.05905560176228
1.26634516687305
1.15593997195208
1.18280179828565
1.05980829448305
1.1200208622371
1.14688392729298
1.19524616266209
1.07081975905953
1.27516155118987
1.10025054598653
1.17335767208374
1.15440463675566
1.16948337879082
1.19720930716517
1.25428748403604
1.08139047624811
1.28448519702058
1.13631955781799
1.16944831106218
1.16588429483299
1.19934286669566
1.14915208622599
1.27358560733544
1.15593509469332
1.29035545227669
1.12974102193842
1.34513449921427
1.21135261211606
1.37320347372811
1.20065206026918
1.30461048576427
1.29493967810411
1.23672829799089
1.1924682346026
1.18670292357833
1.2435700763125
1.46651328930838
1.28217303203068
1.36840281500395
1.29165810370052
1.28643626067499
1.25897565787873
1.46337789134008
1.42798189417344
1.42245560690045
1.23050316564071
1.30078667383297
1.19445058566598
1.28033595194185
1.25459366019828
1.41102060216972
1.34776385132096
1.39019328090567
1.29081357218564
1.4330133762541
1.4450661923387
1.45470357707634
1.34209219748057
1.44863909540088
1.43490033160836
1.39793279156374
1.32297258109202
1.59770245265386
1.36634567900609
1.47127700963701
1.32471572824955
1.60786632977051
1.34923649689957
1.43624832420205
1.32874841171367
1.52684432434426
1.22937852286877
1.50386765475001
1.44742063261943
1.60786589468518
1.4294730710145
1.48458389525359
1.31131135141817
1.69338837303734
1.34480512245056
1.46012610410811
1.40562594328599
1.62560153166451
1.26921117195141
1.54410193556327
1.41596933670058
1.60916769886502
1.61295676436743
1.51411287320302
1.49339323787174
1.51808004274894
1.29870214727647
1.69004253697643
1.44645026577465
1.5124999160468
1.38297730120667
1.54459908137727
1.51919791792961
1.45715102008623
1.3968863042936
1.47971385381622
1.38403640668039
1.64942215007251
1.43180898586762
1.52385542469054
1.43057087017967
1.70238816910753
1.54658930801941
1.56480442214808
1.52124157321988
1.57628375501446
1.58153968371893
1.48769317871068
1.36294111774921
1.58491548057335
1.42500153502437
1.62960526678062
1.48832124154892
1.65420155252797
1.60135781876
1.66661843747787
1.42536380926485
1.52463353881426
1.57268671523607
1.45149288048262
1.52131515952243
1.54292564629864
1.57306536945441
1.40759872956634
1.62029148833352
1.74386216071644
1.59546589107365
1.61241712447211
1.4164997442419
1.79544721897787
1.42843880003006
1.56879062363996
1.45231392715362
1.49539678278789
1.36672428698657
1.78178324424982
1.58074844738079
1.61152932747574
1.42601544339099
1.44772262829779
1.42499510799805
1.68268414103927
1.47725605620101
1.47838811506173
1.45445936278261
1.45987048973774
1.46761847062775
1.71576635959739
1.72643907053046
1.59630713141598
1.33765648226779
1.47059458045959
1.60736050087327
1.52875059304707
1.47976885976479
1.67227213377113
1.48775260671777
1.66154863969666
1.51564210081306
1.56473484281086
1.45477662836331
1.64036287100466
1.4631329234357
1.48064093487758
1.56468080326792
1.6883444396489
1.52080168233178
1.54834205187166
1.49291811444364
1.71362240477695
1.42675027449173
1.55731348140599
1.46123465134211
1.48247793600073
1.50062437602254
1.55623503063426
1.48373736017176
1.5311057106804
1.54885509494177
1.75037470275837
1.35374042809996
1.5656560431013
1.53244878844986
1.5294192118875
1.50196532759952
1.53237488507532
1.50870118205511
1.54952364592694
1.45798743341618
1.64113962363072
1.54630207191682
1.58754421906433
1.5507179503132
1.62595289012312
1.39705286402316
1.65647450901487
1.34364767245607
1.5123283594424
1.48484494149006
1.50379718488285
1.55306321510342
1.52121394512856
1.45141667829126
1.54345104122743
1.45752318931307
1.4354086796519
1.51911355222475
1.37319375898889
1.29176924675318
1.57546665963901
1.42867107610102
1.52676422773416
1.531352002383
1.46200097379512
1.46613699949702
1.55435640862187
1.49521933069947
1.43686132363821
1.48687098182507
1.53348782941275
1.42646449467554
1.45025699283785
1.36323482703345
1.41904006174733
1.3495656547064
1.50033882611513
1.35988863153328
1.40990904671104
1.41019873282145
1.41321905892665
1.3611480277506
1.57579161980237
1.44136678183127
1.42078049860822
1.33824727232387
1.50470488798337
1.3706383759846
1.49297159205015
1.36353816812838
1.43695807204513
1.36179033320242
1.43122551135473
1.33509069192816
1.38432569921716
1.33046014324479
1.44499536344342
1.30461424461363
1.39024872635876
1.29703798991747
1.36048491294032
1.30627465565972
1.47187092499329
1.24884488497888
1.41230620212529
1.3449626779858
1.28504906039061
1.24425751122799
1.3671150729468
1.25437620153146
1.44800205957667
1.34634316081034
1.27292419539409
1.22477624543309
1.35681346574345
1.25034502163755
1.27002564584657
1.31766281796532
1.31012306316772
1.22845458872481
1.27401837409049
1.19478161585657
1.21440040721508
1.21463333859578
1.28462201095805
1.23430835805082
1.24831595711997
1.17232530738456
1.20643807960516
1.17941381292667
1.23889253512478
1.16166817028569
1.21392698461423
1.1479903670661
1.16214700234448
1.12633693811126
1.22498866285475
1.15381500897981
1.20727201371373
1.16138512499315
1.16469739517409
1.17593542538751
1.20558405582518
1.13323408874927
1.19113529101224
1.14553427274651
1.12099152475486
1.11516412443547
1.14137310401943
1.09408205220681
1.14045531935223
1.04727729488995
1.07465469603605
1.05173547524715
1.10555719665044
1.05134099686685
1.13275994832978
1.00322510395446
1.11199066136603
1.03981690276605
1.06099439422807
1.01037350192549
1.04389495162879
1.02186267386235
1.01504865182358
1.02489673462701
1.06776988857068
1.00015703199656
1.06728837986473
0.973410913161139
0.998204513326993
1.00423508875715
1.040505832013
0.959754923263595
0.975416799470447
0.98661163104655
1.03997990996865
0.924791556761889
0.942990094521094
0.931753950333642
0.9710800928767
0.914539984324142
0.930498141940359
0.866559189497737
0.951657967078182
0.927885703501279
0.934023285055735
0.89680197896191
0.920381589908803
0.8828961064413
0.917503548987122
0.86575444324081
0.88971574357841
0.854251022523612
0.891584669082958
0.852728123592805
0.882832183276782
0.877479952148057
0.861894680122257
0.846559084376744
0.860089670109771
0.831284380195672
0.860641174635571
0.78384818964783
0.853076893966511
0.800454657794035
0.821345113447056
0.811651454825763
0.8246523498816
0.80390856939633
0.830031011452856
0.785283975414106
0.813164269166393
0.805093943353512
0.815127982787541
0.762977338542921
0.787781454592997
0.773397384272339
0.768569921418811
0.761833405314126
0.792245304960109
0.746887351597573
0.75105356379484
0.734122128530171
0.741882451426248
0.747133704037662
0.753042912988601
0.720902549294285
0.728818080370389
0.731414706522037
0.742387686655099
0.713522794326213
0.714699372476064
0.693012309057264
0.715689522130896
0.710652236408809
0.712776471795737
0.689587784145807
0.685697630558001
0.677404678674865
0.700976380477519
0.681292049732391
0.689019920448077
0.682532194199044
0.674296946724183
0.659835029691685
0.667900064575161
0.661969993302358
0.669278913762608
0.642681981686221
0.651773399405828
0.624459617179296
0.65032621159316
0.620539878813566
0.644596873610265
0.64492603994726
0.640047390162562
0.62395662581242
0.623636149560809
0.615868852285783
0.613371338941325
0.603124622374738
0.623163211311079
0.589419274622419
0.60907585181459
0.585453975474214
0.59903275087012
0.57697780755922
0.599618364113249
0.577441841136299
0.590578438213897
0.579858242696311
0.579713567029155
0.562591578033221
0.57501370893095
0.562777281836245
0.567842142918802
0.544571505031802
0.568369584096307
0.558461843351567
0.55694280819511
0.537495118419742
0.553711282347098
0.544866293777076
0.552587458649088
0.546836091330754
0.547512571613663
0.533531252292111
0.541890986366026
0.532846806927729
0.535394922837952
0.52545233093055
0.523349524883245
0.511324491090269
0.528049941569152
0.506376611394544
0.518934410525715
0.515317331521341
0.512256945620055
0.499831590815964
0.505126392311628
0.498921930986985
0.506733469641391
0.49299826159843
0.500111692689701
0.483704939733762
0.492107427674107
0.484798174865858
0.488692037002419
0.47726967336476
0.482052023993132
0.476034480661283
0.485568003158756
0.483437223724352
0.490522283957193
0.473400511448946
0.474708207014469
0.4596715606825
0.477985832125306
0.464605837056324
0.470091404973348
0.466716499773593
0.471349964003179
0.456347858816057
0.473182030312243
0.461266006390144
0.468072303464224
0.453340729696959
0.464132719784446
0.458112376256484
0.462816832481542
0.454665249753888
0.46915992724605
0.459680663836644
0.455329426990936
0.46135469108637
0.468639530991637
0.459781377514523
0.473982573844306
0.470618392274582
0.468669783981235
0.462029181352762
0.473033410683176
0.465952491261923
0.478981654139077
0.469214070703977
0.483930388175436
0.477416860092143
0.489104300718114
0.483567461994594
0.485699719928283
0.483945874000576
0.503914014879203
0.483537618813124
0.501569684401222
0.491770014063866
0.506584361406063
0.493451727606375
0.508307827072098
0.503782481960317
0.509252187015965
0.496664829179943
0.517295548763445
0.515649772936186
0.523243585867886
0.526182091594165
0.53589436361929
0.518855317802235
0.531292999908345
0.5264348784804
0.53732781795672
0.533286415812388
0.556899503661943
0.545886077504775
0.552138846684414
0.555544664993855
0.563818368041165
0.550250915769856
0.564295045080374
0.552448760694748
0.573244387332027
0.57220366036872
0.582640088331158
0.584788183617066
0.606425559011787
0.592851627602301
0.615658956861335
0.616600914524571
0.619266352006008
0.626141350030825
0.636451927399453
0.620432498245515
0.631277776723928
0.624788883231725
0.645133219687403
0.621950466019862
0.659144752885184
0.646684255463257
0.650363481312034
0.629521790416843
0.653505558967434
0.64859324994018
0.650062978218135
0.664178649274682
0.658390073188756
0.629120388618543
0.670535386342585
0.64754406693046
0.653183686070012
0.641088232413215
0.645267849958716
0.64467070485061
0.661735406156433
0.649117440592832
0.64970271828761
0.623595452672658
0.649376100690379
0.639342090418678
0.64005168850104
0.637157753333876
0.632883828450842
0.630596000539819
0.629338645858006
0.623161540215121
0.642063272401942
0.628006918270405
0.636662485808862
0.630267700115122
0.635936328094475
0.630642380375916
0.651268389189298
0.632660807728108
0.635130569869053
0.620391196188859
0.641290900639982
0.628041620040844
0.626015783796649
0.617324179672324
0.642797620587952
0.625774626273224
0.635628249053243
0.627062805682479
0.623954095624474
0.617461280573312
0.626931844856328
0.616254712819862
0.632622307204092
0.620886143964423
0.624765606668143
0.611310607407666
0.614560607010311
0.600092400778528
0.617336147701599
0.606662098796113
0.609888212511664
0.609013652077057
0.604385644630187
0.598975989707386
0.607741251162901
0.595830065759699
0.59003615078949
0.585664851601824
0.588932379187402
0.588788505623728
0.582079505072474
0.568658829752264
0.580285041371083
0.566824433598428
0.562320630459344
0.557377204786834
0.572582929601721
0.546767693489291
0.547751023724031
0.544964700595866
0.540189699359938
0.521978116639013
0.536863567305281
0.525276479641338
0.528928960032999
0.522757215517598
0.517897696840267
0.507500406345843
0.526797548327929
0.510348345780398
0.512833585908257
0.492573299034133
0.498131366122425
0.482551362389793
0.488452742906768
0.489461387574897
0.485919341545135
0.469323382548185
0.48330542569267
0.474799423429703
0.472463585451007
0.468186113589445
0.468551775210691
0.465081865511298
0.465081485034475
0.446880621575858
0.455348342779639
0.451321266198832
0.455658893218168
0.449423117827004
0.45107722927149
0.440371122805213
0.442716848926089
0.432789337286946
0.435540611188249
0.429556032284137
0.435612516806385
0.430499751749805
0.433837594900939
0.422559639759339
0.434966134001786
0.426101553628213
0.421318802745664
0.416059369567144
0.420877303473708
0.412941894112838
0.416513449709998
0.40863537184192
0.408455495951613
0.40207307377137
0.413244650542258
0.400834019755726
0.403361532144107
0.399831685583664
0.405117064309607
0.397860743910747
0.39308454463767
0.396682148822708
0.395425537691585
0.389382917808879
0.39717667218732
0.387104072927607
0.389088194070553
0.385567244129248
0.390858922004134
0.385565425691905
0.390873561090711
0.382083540289348
0.38108429414427
0.373016188386988
0.382638573770627
0.376629211842517
0.381550959233225
0.379716234404028
0.378423978105209
0.371944709077801
0.381778959977324
0.369036352473545
0.371231630292251
0.364674376166338
0.369929457261129
0.362967999549066
0.363573913995724
0.361094075273729
0.364734395649537
0.360409035018248
0.359834346846409
0.361875416353835
0.366431553189065
0.360363356688899
0.360961162621346
0.350968538915255
0.357386899163207
0.350239686528296
0.358048198013007
0.355190762301385
0.355236568878293
0.349454870084626
0.348842079256502
0.351230855306787
0.3535232047402
0.350752036571029
0.35283136747327
0.342527800073333
0.345195700872667
0.343801992002663
0.345470496846761
0.34490737339425
0.346958076246902
0.341766067055182
0.34540021545068
0.341596536511733
0.34431816912932
0.336534016733806
0.342829579806261
0.338863261867123
0.347671692182086
0.34166537016294
0.332794840507066
0.333319355408903
0.338173707517374
0.329439222229214
0.334716225434104
0.334371460892937
0.331012221437297
0.327571085286329
0.336044131918777
0.335029908825165
0.333312920144021
0.328189024059688
0.330525478222409
0.333990584883475
0.332127189227893
0.326568046555558
0.325262264883987
0.322768167084009
0.328154477692185
0.324826680963699
0.329812202808893
0.327017702365493
0.326920629253972
0.32507647066509
0.324154609594843
0.321679181494242
0.325482058795068
0.324786370785318
0.32363404414271
0.319862427944994
0.323296189977789
0.318987825236901
0.322075526068993
0.319411019369195
0.323393607499325
0.315085147437252
0.318697607414118
0.316383663064446
0.319286157795965
0.312016599149228
0.318476840219446
0.317229384189135
0.313575034645773
0.315159793987211
0.317454201819077
0.314066848564726
0.313036337782568
0.313994827868138
0.311624706934731
0.308013589888642
0.311994932473376
0.309718116976893
0.31402383048987
0.30642134244686
0.305716876072723
0.306656219938867
0.311430914491968
0.307450897768863
0.307589299381198
0.306028025547082
0.306382483156331
0.305026649476495
0.306042672443128
0.307221005448891
0.302354194775833
0.300707993803035
0.306530593444973
0.298849540858305
0.298954964019903
0.300095072100843
0.300351775073291
0.299448841891207
0.300958293225425
0.300097141138592
0.29565960111179
0.293324150080999
0.296424960010915
0.290318430507046
0.298061257166585
0.294684261703991
0.292589699452373
0.29495825531886
0.293329056161792
0.286677934958625
0.291342422854705
0.286953529100566
0.290264813706598
0.286339550857455
0.288046811474071
0.287545025163279
0.285427632479775
0.28610735295231
0.285139708662685
0.280843048213229
0.280296888660879
0.279757765603606
0.280163015669902
0.278130744524778
0.279786287520963
0.277865322649219
0.282045260706878
0.279715332166159
0.278061111406701
0.275611284278246
0.275411909446978
0.273800942880251
0.274815441017553
0.271847388655768
0.272511487061986
0.269562565359535
0.269410112620105
0.269194988274931
0.27397276206915
0.268305390987125
0.264133813818013
0.260236298611675
0.265300080094014
0.261590825183291
0.264752239911092
0.265392864144291
0.260572280518708
0.260076670008058
0.2603890459501
0.255619912898693
0.261093959957757
0.261471825677346
0.260824646112422
0.255463575469968
0.256057245853369
0.255502924484965
0.253217023922588
0.249104607691819
0.251176804105931
0.249463326255476
0.249544807365485
0.251501595637623
0.252679670663645
0.25145607561019
0.250721429200928
0.250531128648014
0.245401472098621
0.247225850458381
0.252501012447432
0.245370244282098
0.246071953392078
0.246753578216415
0.244421746729919
0.244943235748611
0.243394076506869
0.241201468407005
0.242690326624375
0.242243183244277
0.245655405561849
0.236773108168379
0.237553961428297
0.236641455833308
0.239277255308772
0.238875480337527
0.237061753758522
0.235640503334826
0.235754221635683
0.235106718032839
0.233935915365758
0.234776245433953
0.233835005209594
0.229695420255608
0.232518658511844
0.232145634224566
0.232919134636648
0.231300462774757
0.233666473347713
0.230813169766093
0.228710114465093
0.230261209489677
0.22857664866222
0.230086974224903
0.228159679637494
0.226646565026357
0.22753835493657
0.226134441089026
0.22701618595949
0.2251807003734
0.224113584954307
0.223175858096977
0.225596155602524
0.22152100605164
0.22175601159184
0.221693373797387
0.22383455849416
0.220715156089586
0.219881231628154
0.221514892180341
0.221371069407609
0.223237221117557
0.222589460746496
0.221950960174486
0.219920473227223
0.225003980776659
0.220404607227933
0.219546966137381
0.219463155273981
0.215552868255901
0.218079279010388
0.217586267041303
0.21428797463806
0.214345014290383
0.216273370230488
0.216510799768566
0.218161816843125
0.216880595064873
0.216077740373041
0.214402120412278
0.215935304584078
0.219513384046272
0.216435278273829
0.214740740461505
0.21345453059373
0.213779571038291
0.213918296843677
0.212703184938108
0.211488475998312
0.212254200483858
0.20977848507313
0.209603752007561
0.205461910569604
0.205908680183943
0.208030325178983
0.211383500510401
0.207152019158204
0.208579261421372
0.204622727205017
0.205424071842709
0.206047761447328
0.207287435357507
0.210037287627084
0.208089554087133
0.206581118575592
0.206519107028669
0.207787145069908
0.200819667593925
0.200004491238583
0.203076303153258
0.20555435567377
0.206161707631664
0.200628631947847
0.205932422529201
0.202288038929658
0.200023008454061
0.201293512591622
0.202647028922146
0.198097236466909
0.198090192377249
0.202439054607707
0.20325890176727
0.203023874230363
0.199296522272296
0.198220756932105
0.197710569714503
0.199625363868999
0.199635510889653
0.1980850570492
0.200913067042583
0.199781405820957
0.200201760391464
0.199626546899547
0.196349355220951
0.198092027898839
0.195016136343583
0.198639459433652
0.199284224935256
0.196339781705758
0.19529808736969
0.19482167830375
0.199973963810878
0.195829458396537
0.197570469443201
0.193635479146319
0.197085196562957
0.191567587302696
0.195582384388874
0.194409684947247
0.192947142961072
0.192919997050002
0.190079629333715
0.189668594557062
0.191262503151873
0.192318252217763
0.191303177836948
0.188928242055237
0.19086604680312
0.188523262917008
0.185991224187539
0.186933108932484
0.186708215408039
0.186352175949811
0.188246381434592
0.182725688578768
0.186764035843651
0.180516175364569
0.185248631581533
0.187041805231655
0.183265432068185
0.181202016786389
0.17962104175623
0.179443987719276
0.181064881086706
0.17773356509769
0.178633631439422
0.17737818782604
0.178767912190597
0.181019599112651
0.180884771628218
0.175839945270886
0.177720014367515
0.175884536297924
0.174602215787711
0.173879139013823
0.174713205725974
0.176244388199002
0.173608246832449
0.172886104236638
0.17400600862196
0.173604217103378
0.175207749707769
0.172325215155252
0.173487253691309
0.170039191701326
0.170990876323701
0.166740155108408
0.171927053099633
0.167853482889816
0.16963305884786
0.170916061615192
0.168425462284918
0.165212667931683
0.168124510459866
0.166673207826804
0.166083788026738
0.163981449074003
0.164986285754276
0.165097508704163
0.166120570126732
0.159433598158312
0.16687500811866
0.161489680915515
0.162548556550555
0.159554874541052
0.162160740316706
0.160325139830799
0.160876277116508
0.160467083054933
0.164199008807766
0.157680256168121
0.160156328635638
0.156352160799881
0.157393782839514
0.154397167959442
0.156894331568121
0.150007413785326
0.155924310732981
0.154782843159608
0.155145165790675
0.152066033095156
0.156526776346174
0.154602057713372
0.152601282659976
0.151827108186982
0.152629975017334
0.151370213234552
0.148532005526169
0.152709541563538
0.155341619363089
0.148710060486712
0.148696424850113
0.148907919914379
0.14708251093862
0.145791299878685
0.150997732341183
0.147034514079271
0.147686526936899
0.146205191541825
0.15125638547632
0.147253361034396
0.147554993146358
0.145918138610552
0.147686651741646
0.142323462416514
0.145640395644419
0.140600569156151
0.146039372947825
0.14460841498061
0.145534594407016
0.144218110714528
0.146777675083522
0.14471579096946
0.144659987733334
0.138866608519591
0.144971643546027
0.140168830026988
0.146170620224867
0.137895269628751
0.144338827226098
0.138099631071946
0.144595254246754
0.135275274588018
0.144917118102347
0.132980064708869
0.146694331047308
0.137881283522528
0.138613061667757
0.132137763407373
0.140200776223384
0.130792205305328
0.143259150515982
0.134915500960887
0.136583550504401
0.131872062971236
0.140357181358951
0.117611963127851
0.139391325283214
0.126034516634599
0.137956972372734
0.129526760347096
0.136277479239527
0.126102724596506
0.133614783275057
0.125958878201775
0.140661612735742
0.124474269310751
0.141402442921198
0.127448203633167
0.13607888436918
0.124000927935604
0.138396927353956
0.120176938286634
0.138266127288191
0.120157974464712
0.13924503259093
0.119251860366506
0.131664808953193
0.116655965334712
0.138398571050913
0.117898221397224
0.138471284940695
0.120047037487647
0.145841614605413
0.120728673387529
0.140860766995831
0.113710391754902
0.132019552933855
0.116812097629259
0.140869953245631
0.125298624628613
0.133695500049186
0.120629162330121
0.129833419637884
0.126302435293793
0.128314621837624
0.133856036522835
0.1187459956914
0.138139546755162
0.115683971756597
0.145952431174472
0.105514123434505
0.152533961235746
0.104841392788025
0.14830591237848
0.103359424477057
0.14829312425785
0.105518461952457
0.14018398820485
0.116440148250397
0.13461127605354
0.121647719226363
0.13152814206702
0.128258840524114
0.126574666880437
0.125484918989831
0.12594338611287
0.123045236025371
0.129576370452375
0.121054508285431
0.129515936645123
0.124281191192366
0.128524896367652
0.119272225641112
0.128594753691365
0.124884694187048
0.128633210452208
0.126549891809724
0.125702546865124
0.123832274432319
0.127918246600568
0.126729617640382
0.127304286936162
0.123165447883937
0.128285764109529
0.12237540952547
0.127166672126877
0.12151932212568
0.12379421866412
0.122870751589885
0.12659594983944
0.123959305776283
0.125873844168172
0.12069444928893
0.126615944044182
0.124937172528841
0.125568332281994
0.122148848690673
0.126798283026969
0.122783908792136
0.127622431466676
0.123581423564148
0.126875751672491
0.126413551241627
0.129596807717527
0.12309409153948
0.129492789903542
0.123993410256094
0.124142917208472
0.126439335803661
0.128691996178186
0.122722490688151
0.123207190804287
0.12317833380749
0.124608719430643
0.125575820506895
0.124719180800069
0.12416692554313
0.127902266523011
0.122676278673772
0.126320406879951
0.123270913174171
0.129007642947375
0.122529492010502
0.124980194671828
0.128222136970213
0.124455426009079
0.121407855804175
0.125429050248079
0.125317298749357
0.125492119321274
0.124022664595675
0.12677732641693
0.125953265240469
0.123960557744686
0.126094989113921
0.126623491771523
0.122716701876159
0.124755324768931
0.122014715510457
0.126348308377181
0.124598437552402
0.127697783083414
0.126102179301429
0.125634995208682
0.125366287430185
0.126511245789777
0.12338989101446
0.126004351340225
0.123212473911016
0.125376279551606
0.123831510865239
0.12780863948339
0.125086806524253
0.127500182908104
0.127089049480898
0.12691966486585
0.127665827291619
0.126575271741865
0.127951575798319
0.128263309619569
0.127954253408436
0.127303833840251
0.127509400913277
0.128276410452972
0.129419556356443
0.127009756499392
0.127003474368592
0.12743904046618
0.129405262513087
0.131111374050884
0.126674862007481
0.131543390669372
0.130936325562905
0.129925367934787
0.132028340976069
0.128700314585837
0.130053798283999
0.131340758544692
0.130817397424813
0.132206783055468
0.128471378167939
0.131672516263602
0.127503152800887
0.132258906627655
0.127890554661117
0.132993366601265
0.129425352548444
0.130067263616056
0.131570773749017
0.130157409111824
0.132581268796812
0.131018153781626
0.1329119267103
0.1315166526102
0.132999489658047
0.130457278349311
0.130674010843254
0.133403683904938
0.133524456489854
0.13295668093469
0.132201061395152
0.133608556430753
0.132202195363217
0.131992148192187
0.133505296350212
0.13233650054792
0.134106419110301
0.134578583440258
0.133705029563559
0.134883433941512
0.13450377761021
0.134968407152747
0.136179031135263
0.133954543772676
0.136508673218394
0.134806489966265
0.137065179137099
0.138154900426071
0.137638933961658
0.137606523753082
0.134614382946712
0.136288337426267
0.135207930820488
0.136695304589832
0.136433525960274
0.137116966614068
0.138616752522843
0.137527235177582
0.138878687148186
0.132546219019626
0.137829555298342
0.136426246805961
0.137263706903613
0.136940862128567
0.136097600571354
0.137233539937645
0.137899317415364
0.139579806902701
0.139585106199226
0.134643635097279
0.137322561445947
0.136059197286098
0.135848062444596
0.136465223321354
0.136098473109589
0.135661843449326
0.136001419179062
0.135719368179412
0.133428454168824
0.136323374141233
0.135426169581662
0.133772873027515
0.136435303220287
0.133457605090356
0.133425047876519
0.134561756539703
0.134174952958996
0.133964597970812
0.134492896590106
0.133857994909138
0.133394970410983
0.133627374921059
0.131922864724824
0.135889527059232
0.133344121512035
0.134190673667884
0.133132122575466
0.131598795510382
0.135613876570007
0.132010806157319
0.134959239679726
0.132142932605639
0.135466286826184
0.132197151683648
0.132252296326521
0.134232796294012
0.133426470843676
0.131306096854369
0.133199943653638
0.132246356102069
0.132711978046551
0.129976869480153
0.131052770567607
0.129770211095737
0.132806679576611
0.130733519924811
0.130135441806386
0.129699997135592
0.129476508858279
0.132305464864283
0.132151604975901
0.128689163601351
0.127369493737772
0.128983970230427
0.130761978178491
0.128372040310197
0.12817684651465
0.129968682540391
0.129836804852607
0.127618428017137
0.130674880401959
0.130064653356697
0.130287381792977
0.12664620266944
0.128258587533631
0.130786686938325
0.129166522219123
0.128761352731398
0.128058375522305
0.126997555646627
0.128341662358459
0.127720067688484
0.131102208324127
0.126975579317361
0.128326828072202
0.126581239202687
0.127043333787498
0.125870337202995
0.126774651374227
0.1261010853007
0.125821803485284
0.127777447850779
0.1317589795852
0.127177414262694
0.127451906614451
0.126791334421805
0.123570860729779
0.126539017240085
0.12954462428797
0.128000485705892
0.12624214921115
0.125929696367174
0.125117980841494
0.123576193688214
0.12769238465865
0.126776090898246
0.124511149292668
0.122407629472673
0.127256562104736
0.126103653467222
0.124158862076733
0.124107655093887
0.122061474263475
0.123415062130794
0.125744927251552
0.122139579126933
0.122792779145132
0.125878047056321
0.125364328199716
0.12122084343272
0.12312885470623
0.120051310139371
0.123974931021222
0.1234700082025
0.123019070896825
0.11996466677102
0.122254063877288
0.118722285888784
0.120109669781481
0.118202567181613
0.120157587092555
0.11814264356329
0.119512150803408
0.118147486172556
0.117010909464078
0.115469054858551
0.118695389333838
0.11583127895705
0.115456957827002
0.11491517913864
0.113408407273188
0.114247428664751
0.115755272159789
0.113082694873551
0.119229629343094
0.109321070747267
0.11380738503939
0.112615980552662
0.111802608947231
0.110696069540035
0.112722027324627
0.109970257811421
0.11332382864131
0.1080860079242
0.108673581766608
0.106276349696626
0.110124695320399
0.105894587820863
0.108189916038529
0.107469157201355
0.111924140802564
0.106309689584709
0.107945655944161
0.106897900106244
0.108409031257999
0.104175280841357
0.10983180320509
0.103552491130883
0.10898824334199
0.105056493346539
0.108011645790649
0.107914196497333
0.104623892278961
0.107295252066625
0.103691309443118
0.102984635980014
0.100662320926269
0.103920174338411
0.105171080573662
0.104142215798352
0.102218004017646
0.104046943514839
0.105072398525059
0.101663415468158
0.103742012692072
0.10134775284221
0.100749203065029
0.100541070429152
0.103680703452239
0.100553448174972
0.102607842327689
0.100752592670212
0.0993915878848368
0.101529028623034
0.102007210583894
0.101508448644965
0.101338356570719
0.103366030271914
0.0997634430311399
0.100707517946254
0.100455906804716
0.100766870237618
0.0965272588737827
0.0995257553232909
0.0979689900932424
0.100816801942508
0.100837792105755
0.0971282491576071
0.0994960991316501
0.10077667640869
0.0992907193815245
0.0972702372765174
0.0976588052933869
0.0973509531656176
0.0976236839233911
0.0984659369452649
0.0962681253384823
0.098200039465046
0.0977339962796441
0.0988867512724793
0.0959287416082712
0.0999590687083186
0.0964211938360265
0.0994721391391485
0.105710804244944
0.0913029450973731
0.101012481605915
0.0939831567321498
0.0977758761776949
0.0941115379308057
0.0989157589654842
0.0944014847072189
0.0972266050906633
0.0945956867515699
0.0972158181280077
0.0950342417373345
0.0976355265005101
0.0911845084990249
0.0986009174173246
0.0959030880307027
0.0969554617442982
0.089826946912273
0.0961668546942197
0.0928904312918513
0.0950534678353906
0.0953892244382008
0.0931272145662178
0.092144093377788
0.0969868109517397
0.0864578593303381
0.106854788105424
0.086957042781036
0.0951327948345631
0.0900693204954796
0.0933026469444375
0.0903811540223891
0.0947603079784824
0.0924803607814423
0.094290714663119
0.0977234407429176
0.0897639933290745
0.0936044482774544
0.0899467888073083
0.0899788758045573
0.089568692061837
0.0927229946293208
0.0918926179311962
0.090299344002281
0.0918002704929217
0.0890407603028675
0.0918137367960415
0.0898347721214767
0.0920012316717557
0.0907487030784061
0.0931874592921812
0.091476162168354
0.0879492108967739
0.087593700747523
0.0889729972636549
0.0909015970466741
0.0932225790618406
0.0991710491222262
0.0845270172253734
0.0924100318542434
0.0876138965124357
0.0938469921395892
0.0880507881291123
0.0895425012207221
0.0910513875244768
0.0902882188866877
0.0895171602249272
0.0915377822818938
0.0916056428393813
0.08946793205119
0.0889028738893582
0.0890121130441284
0.0902559379933098
0.0890806602102829
0.0884230820163046
0.0841017406673962
0.0920776215115675
0.0893100299079277
0.0962203624480147
0.0931037412301343
0.0906586316063872
0.090321697611573
0.0865851342470425
0.0891358935046901
0.0880360200888363
0.0919034868089187
0.0864907178410311
0.0904385854387916
0.0850433193796656
0.090529615919819
0.0869824321906285
0.0905004518454636
0.085452510750605
0.0894815386576808
0.0864887196340043
0.0888276734857226
0.0842040309749526
0.0918029481213588
0.0853571686290512
0.0920859460048497
0.0836942981699964
0.094958615674148
0.0825173419672281
0.0916337547778186
0.0813578549875044
0.100102571239837
0.0920719883515995
0.085393454589723
0.0963104313867957
0.0841516876508303
0.0900156145954771
0.0854546967174417
0.0926101384792529
0.0910613303400125
0.0903633446725303
0.0886527835176891
0.0915622879794012
0.0867170247636891
0.0890066208539117
0.0865101154138408
0.0907990448336202
0.0963802207271897
0.086022648551143
0.0912848580704215
0.0914266105730803
0.082469745957833
0.103034558246383
0.0839616349249541
0.0928404351949358
0.0872194730610496
0.0891177083292415
0.0910425344299969
0.0930501335795741
0.0893084835871359
0.0909770739163819
0.0920005496275914
0.0872576108787244
0.0917954717347292
0.0896098093177756
0.0920044567670875
0.0912594792872724
0.0925475088789415
0.0964939400203432
0.0891711448074473
0.0953679349078944
0.0949038271059279
0.0924052401841946
0.094317521094739
0.0920442985047961
0.0930284073986405
0.0943849074041896
0.100030072752267
0.0930357523433357
0.0975454024768525
0.0964549387237083
0.092936002243808
0.0967328522026214
0.0952740258849294
0.0977891324619914
0.0973323277417643
0.0899648271714796
0.111637486496732
0.0847667798678606
0.109895144928679
0.0864023985554419
0.102780649981589
0.0888747103727328
0.104375134925695
0.0894157032045916
0.103527639208188
0.0924235371759967
0.100030491268788
0.0992303211435542
0.0994781432980068
0.102143250531387
0.0970542978334574
0.101175552141696
0.100126339330751
0.100721329279842
0.0985537251662117
0.105015036919914
0.0962959887237666
0.11959996077758
0.0957690368467062
0.0978514278892706
0.106673642386533
0.100823992684844
0.120464080479339
0.100011190863161
0.105343507763535
0.103916285179297
0.102695117514168
0.108266112093936
0.100431859216963
0.117624668859567
0.109108351819875
0.104910998646875
0.114455519700691
0.107049425108112
0.120665834153494
0.110265225784609
0.111257181860881
0.11088852887628
0.118863279749537
0.111619514159626
0.11987243236023
0.123651991105956
0.109440124193468
0.138229393719931
0.112757398943672
0.131442193158359
0.115097865886505
0.127525937762731
0.120108837051117
0.134303467621903
0.117472626689276
0.131580761655846
0.123181047144392
0.144894109714075
0.121195970668579
0.141780436535168
0.134020034356914
0.140698561576985
0.147881937642899
0.157044580969815
0.142324072191808
0.152319978303322
0.138989075274596
0.158277376514893
0.146677102800928
0.153702380425581
0.155372558143791
0.154906333035525
0.156589099752527
0.15651136561218
0.15972932106372
0.161198616748193
0.158197833249856
0.170481739108262
0.160635360567921
0.187183351658422
0.17438452360992
0.190872561512511
0.167299223499682
0.182940626541347
0.175927476621979
0.179633887669616
0.179605468317744
0.179051912567264
0.185341711615503
0.186744016395397
0.185075801801848
0.187032046296247
0.194357584536877
0.206157283879127
0.187604684819216
0.216707081740601
0.189722500434728
0.215649478281935
0.187485047951689
0.266061950466899
0.214772009548994
0.218470274609193
0.237822922321095
0.222402241139638
0.262452186860132
0.238256974002746
0.249382805480244
0.253153075493555
0.257841997229368
0.263257900363852
0.279240414478183
0.277956356345049
0.285261542159897
0.29428566118554
0.297539836363985
0.305291998121333
0.348922343973116
0.328088050249063
0.341589312110131
0.33413586195038
0.351747077032146
0.354693947017886
0.361258481170784
0.367882792363013
0.387015130716253
0.36972725475768
0.432140757896993
0.395213616189694
0.418487421525269
0.410573439213308
0.441028213992397
0.439107012640413
0.447891290558661
0.473688079738932
0.450752537698208
0.48064504792742
0.472001724973344
0.493311601283969
0.48521714184891
0.521747242928874
0.510027294063586
0.518076475931134
0.528659957276336
0.52651932990324
0.540646926169787
0.538776308088145
0.549633576226555
0.558293578031832
0.577528192813119
0.60373471226417
0.582760685179975
0.589748987540044
0.563630433095001
0.578406048512313
0.557521053765194
0.602238997326313
0.585880403237931
0.594038878504089
0.602824056096632
0.573634099475555
0.587848751891794
0.578441987401762
0.586487096990867
0.588581988862024
0.594708219258512
0.584888381015662
0.589864646460392
0.60935236602418
0.562197895387481
0.653340197652961
0.568183614380778
0.5857968569316
0.573227761401974
0.584070885650054
0.578721304226694
0.585112384209436
0.565333532830562
0.594576782753728
0.564235003789079
0.565566385994392
0.556220667856722
0.562395300127083
0.572505829631065
0.539064697741216
0.528874337408096
0.529123538291576
0.512561457730404
0.507842178985488
0.505158181670995
0.547657905110505
0.487233266302597
0.488379371974104
0.484424953851918
0.481018775995252
0.474044205305578
0.468372789111227
0.463459699811964
0.459153747343512
0.441890590609155
0.440947121900528
0.436508032359479
0.436054794614728
0.435456716288231
0.433870421001085
0.428905235519841
0.420288571650502
0.421742676678596
0.417279959603325
0.415569792467812
0.41759568945818
0.410937949849064
0.410585882539217
0.411774221790736
0.402635218946229
0.396159944830841
0.392757897687717
0.397983641875405
0.393530032854765
0.395395667043609
0.38675809454899
0.38650311081278
0.393091864537912
0.387857599820152
0.384430941978265
0.386630720635739
0.385244165136696
0.384273002670404
0.380181709439319
0.385068305942758
0.372978701903235
0.378888199266017
0.383254927984703
0.378722195727291
0.390389659920512
0.360801640434569
0.383028160809402
0.368123006068646
0.376497923134989
0.36812568862285
0.375226403710758
0.374477536516383
0.360812221939157
0.365390698393843
0.364268601033653
0.35413503884562
0.361402068372173
0.352397829322082
0.358703139502924
0.366261655391064
0.349920015455084
0.409740802494567
0.344733462597455
0.402517889828426
0.356878586032998
0.362553394733721
0.358554014918878
0.378708757294718
0.353337453271887
0.355527908236938
0.368821829271969
0.354184961319162
0.373054913107622
0.354116844351855
0.358924536240382
0.356807784075739
0.362214555653201
0.366559354857917
0.358825069812498
0.356144023723395
0.370087959738944
0.352532297049595
0.364722713829859
0.375441638134126
0.344583463406514
0.336212972717661
0.334356638873601
0.341931345285797
0.340401320166067
0.34466478342137
0.345141277815715
0.330026569748349
0.332258018887718
0.321068896154597
0.338470380900273
0.323664349732651
0.33638512154055
0.319110352841631
0.327890890344909
0.32580361193
0.308869871786304
0.336413447729045
0.317515442938873
0.336706313823664
0.308386870909271
0.31605767382981
0.3119049369351
0.336194606157024
0.309730088446508
0.30031512427714
0.306783522306446
0.302384786554267
0.304559478085458
0.302240484554029
0.291201050024357
0.312564111311897
0.300089904893106
0.316562891348272
0.308863779357485
0.297828643000887
0.289711811685172
0.28875961472779
0.289732669497377
0.291103768239139
0.283586691919779
0.297507696318544
0.275231920316246
0.306091339817846
0.288120392703863
0.309800502998492
0.297739033735128
0.291691023337159
0.29671977879805
0.302054375970474
0.298918999042604
0.327338951224494
0.310535031994872
0.321905497061512
0.305597899719412
0.321487838483127
0.320408194742026
0.331443356241857
0.328664102197553
0.331355332668815
0.335243882987289
0.349491946147653
0.353917092646766
0.358038844282309
0.363930954192298
0.381432198277337
0.377179172363443
0.39623903388827
0.39543605696973
0.403599940300635
0.439356864632141
0.416820313301794
0.447671267744415
0.438677874800596
0.451289888439386
0.456363661658085
0.462842058830528
0.477014694348819
0.475591631867139
0.497792855682577
0.497042455583945
0.494221241081217
0.507382107196709
0.512882686335166
0.524612094801801
0.515756812328645
0.553702430338798
0.517750607712552
0.567295398720578
0.541964885611919
0.550230870099051
0.546188384511718
0.551030523491229
0.556064727135568
0.552480197024281
0.565808967725623
0.558911163287457
0.569051822470581
0.569244970138913
0.566455027239534
0.569598605029785
0.57661029572028
0.580810040382069
0.580910745722016
0.58486244916321
0.591408606771802
0.58608689306114
0.5923397570893
0.597576197361586
0.622508857483526
0.615986140796642
0.600618034130067
0.61827071165804
0.611099443798279
0.622645257674146
0.622453748599488
0.627404792753809
0.629722407765325
0.626897655096148
0.631735338923961
0.634859351047949
0.637450608368715
0.646214485037456
0.65421014278825
0.660067492483799
0.647397445558996
0.665939374736537
0.640269895976433
0.701151060477427
0.664542102942972
0.668809820686285
0.674586916154311
0.670638524109221
0.671657898934468
0.670339945888847
0.680330594041289
0.679084501459099
0.679639071168848
0.685880023270331
0.684838000172196
0.67438661163338
0.680501704137107
0.681237850530134
0.68075315486521
0.681814869656117
0.677044882792446
0.675420468823138
0.670817231332552
0.670590521099507
0.66120284530518
0.678376726309258
0.66291802285454
0.653599526135227
0.659237924311661
0.667555430612252
0.665520776389521
0.658170450045297
0.649660892250206
0.655371366100058
0.657376787310857
0.664019237337217
0.663330605217798
0.674440985691164
0.677555749921285
0.676662424584555
0.675809051178184
0.669811016298386
0.686246697395212
0.687044351819738
0.696079414210344
0.69335333006847
0.693447159938113
0.697898952534027
0.708395007492178
0.702964142238396
0.714597102907282
0.717701365339546
0.720333901875803
0.715637131199917
0.720469276998111
0.719097769681702
0.716981218050282
0.724971386979221
0.72464783338624
0.716804889022089
0.721472959951054
0.707149153225497
0.708203856866602
0.716520892250266
0.709351501690771
0.700359233199266
0.714138207441456
0.695248860145446
0.691116096388311
0.689808779653721
0.686616998515424
0.690070464426191
0.694096596999
0.681528443553121
0.685321758306201
0.680773519353461
0.675874834763067
0.670269124535909
0.670652317415655
0.677032097169778
0.673476574765731
0.668633409951258
0.670168122942888
0.67445925263297
0.667168259403764
0.669815879955133
0.664584890207025
0.668990493005459
0.683468561844574
0.65723300995724
0.67227597753614
0.669795403375009
0.663417206239514
0.668042145675025
0.658148153603253
0.658183322151118
0.662740945096352
0.665798222167818
0.665166536035068
0.663107355530395
0.65927218451299
0.658509167065956
0.654238946901169
0.654088397840423
0.65126945058397
0.64757331598583
0.652738749810075
0.641009483495273
0.643292723378204
0.64807773330832
0.641754654391782
0.639227198928287
0.641418156529266
0.639249317930444
0.631050667864243
0.62437585233543
0.633899941660388
0.626937828708874
0.633860122940826
0.631100468427894
0.627665385972354
0.628593202906374
0.632732060979478
0.631268182070584
0.627696174959126
0.627513679416121
0.62505146309058
0.623616033105435
0.609986536504127
0.608464546582455
0.612077484451604
0.611631592013338
0.606047839853723
0.597335716230323
0.598703919623725
0.591308250946446
0.586897370583163
0.589107384718268
0.579075566770369
0.571578050169291
0.569746610678937
0.563824489886426
0.567984598963535
0.567430380360213
0.562027347122115
0.560297522066779
0.553955870396436
0.553258366290942
0.55547572187518
0.547233123994618
0.550708177604992
0.540901451946461
0.548609729621097
0.552373357546963
0.548498514246045
0.547858343594992
0.546389107165618
0.550077727138087
0.55056139112314
0.554587360241386
0.557642161072236
0.550611861021883
0.557602945303028
0.556342456167055
0.558860420901638
0.561308879443283
0.563521852482205
0.566536462012027
0.568262259047877
0.571271164323394
0.576307193854727
0.572433628809719
0.570407997827155
0.575392418867894
0.575290117951292
0.575162909465327
0.57626484876703
0.578146900952846
0.577457571480684
0.581570688781107
0.581029930192185
0.575811103550405
0.58015480625609
0.583751156897681
0.578649941961725
0.575434644034417
0.574083143432142
0.573195701288487
0.571415127273226
0.570511957878998
0.572692942460834
0.570614692554107
0.572014889631255
0.570726838988012
0.569159829382011
0.571937061450098
0.564765091185638
0.565713780227233
0.558670532623814
0.560640444509748
0.562515227554438
0.559680245512129
0.556840457019424
0.557752464224301
0.554054302659444
0.549119481718453
0.548525224247934
0.544977487835602
0.539927323088038
0.54364074976337
0.538437263275056
0.535361615294618
0.534919522894124
0.5322383474213
0.529690308566155
0.525651801858354
0.520962983400404
0.516840523818955
0.515594237816245
0.50981804529798
0.511833951845868
0.504772490823563
0.50443834507834
0.503598061111886
0.500492198361276
0.496136710929141
0.495834759907069
0.491887911823809
0.492499757890994
0.488052231572806
0.48833607378703
0.486349679679118
0.485590194852217
0.483475742090578
0.485991481011989
0.488560349651166
0.486040042151925
0.487664115099096
0.482434418440656
0.47757439691886
0.473253759879608
0.47264825043914
0.468034650209978
0.464260568922048
0.457544255877613
0.450560749635181
0.444225366042916
0.440663144382624
0.431087468054716
0.426726639212453
0.425086502342191
0.418658696645158
0.413470510301895
0.412117547251484
0.40892672862577
0.411173301783267
0.412613029825788
0.415301775113569
0.42405516772939
0.42931956718229
0.433679079803405
0.442015160743928
0.452831820616881
0.463878484801435
0.480036220413046
0.491274470691662
0.511441725017614
0.522964728580887
0.543214700873655
0.563244483255726
0.580466216729321
0.599846026354625
0.620926728134562
0.646569147645805
0.665404422796956
0.685245537398205
0.71076787661882
0.733179687578437
0.764675908959367
0.793278133758009
0.809537393235046
0.850131180167144
0.86780531802716
0.89298507275358
0.918910243891645
0.925616405903516
0.956894516502271
0.984287181873728
0.99784494806812
1.00091874313377
1.01655654550039
1.02443436704551
1.04220182701773
1.04225978407785
1.05090890197608
1.04094487378128
1.0419160305857
1.04141803861434
1.05186556407683
1.02630326791597
1.02459193604953
1.02291835937518
1.01239643981514
0.99602771044772
0.996943506891415
0.992099068058137
0.989199563847835
0.989097350266031
0.985670731269535
0.985165142017098
0.992605656905269
0.981099360378762
0.993782295409947
1.00028928185594
1.00679780408849
1.01171782023618
1.01076766444015
1.02001008495572
1.04218845333199
1.034144655501
1.0421339782871
1.06840445213435
1.0741689041373
1.07256540126731
1.10608380148005
1.09917698469319
1.11191665934624
1.13269892280864
1.12974517632251
1.14924009741546
1.15244101448777
1.15225054567536
1.14237452616492
1.14658959273506
1.16005721212742
1.15730473803598
1.15275238833875
1.15369650769775
1.14908628981836
1.15657259532404
1.15029364110678
1.16881854902611
1.18118274932162
1.1861860789718
1.19278595800841
1.22206842694674
1.21564096318017
1.19926698547633
1.22498148247168
1.24028912179455
1.24496015147358
1.26634745559724
1.25213751525643
1.28174819160463
1.30834807058742
1.30648929111013
1.32503471013649
1.35759663489859
1.3516246951153
1.38699357624417
1.40436960308557
1.42039729309893
1.40743118479124
1.51641287220177
1.59667272906018
1.57700602070014
1.62344171054761
1.60494454823214
1.61185207684732
1.68174498337463
1.70186554580732
1.76428827646299
1.76418591212665
1.76512194564905
1.80854711828787
1.8002496837573
1.68148580532096
1.77098131762252
1.67811913258899
1.76550975492314
1.72479049550761
1.80730968187669
1.77832564061879
1.79592851834925
1.69387195538746
1.8084122927218
1.7854094705273
1.75714625014559
1.69480421224584
1.8301838820247
1.73217477526356
1.78390404387244
1.77291922535909
1.94527111299416
1.73513261112118
1.83909104736962
1.7925539695901
1.87416929302187
1.90836722218423
1.87792720578926
1.87678143936586
1.91942377915833
1.79534059625005
2.15230470305192
1.92305503504115
2.01289230057915
1.96855984109516
2.18994265257941
1.8995981502903
3.02584524872751
1.92344428692466
2.22046184083841
2.10050427747009
2.50205050110999
2.13738014260006
2.38455112770121
2.38690178601612
2.13062486019268
2.21815268147144
2.664811398579
2.547306659145
2.81584674561244
2.24494519121428
2.07471538488075
2.32189318394886
2.43198094876055
2.26004192643107
2.46885164041932
2.36256069974411
2.67606637852345
2.48813869820027
2.87475871307086
2.81404464829422
3.03473975855302
2.48565983456648
2.29583770767425
2.49288363011834
5
2.07741242786949
2.72388011452395
2.5433891060388
2.64064914901854
2.48227783396635
2.43900019233358
2.11652265525589
2.24532886725994
2.28273670165093
2.20018162388834
2.07236889905448
2.46940165265569
2.11737482477292
2.20385815457748
1.9693957139357
2.14847271109356
2.01054422722029
2.50324487962437
2.04306807797489
2.11162656185388
2.08304149363933
2.1264529458299
1.95445565988418
2.0354087144335
1.95147666671427
1.92190772127353
1.88223677596266
1.89480116859991
1.85197252573297
1.80372547757453
1.76387989923782
1.78942412652006
1.77411845779947
1.67389935987192
1.60711853956488
1.70264447026257
1.58525535393082
1.57038790654574
1.49923154636795
1.53552605341397
1.42136441866549
1.39606348322654
1.31458160443256
1.28604480463802
1.24853028353169
1.21207597504933
1.14377906331805
1.11685777014433
1.06478953285452
1.03868702438784
0.995486584287145
0.96605222962601
0.922574427511484
0.888041633988494
0.857316450796352
0.853471822377295
0.830964135557986
0.818751989202769
0.788264667679155
0.794953188706806
0.765843975693217
0.767674319568033
0.743992391963246
0.732840233830719
0.728100943087775
0.729973067336776
0.717204212477464
0.722893991999702
0.721470615737901
0.728322793113423
0.727843320884733
0.73028237445347
0.74645529914194
0.739751358080961
0.735210140777613
0.739770363908224
0.749371434323648
0.736194337823526
0.759097177105855
0.763024508173253
0.757331409033196
0.771627042048644
0.765724946146114
0.768073763921612
0.760818438434682
0.767742368345512
0.764982975316867
0.767476922768037
0.76973975560222
0.772309311995173
0.775338312389959
0.776421313418178
0.761421454249979
0.780947881108313
0.758452831291192
0.780171378898563
0.783335106775229
0.773896774567812
0.760788255782174
0.779087512089048
0.766660901915864
0.765722077312531
0.759169800578211
0.771094707019955
0.771688866047568
0.771651980666264
0.73716496079291
0.755431488800598
0.76243147836418
0.751089750044897
0.741025622861363
0.737672097867052
0.745888112910999
0.744004191472687
0.745570855543467
0.734040610228671
0.736904094651804
0.74712981222148
0.756272838767416
0.756135662676342
0.758300315079958
0.776472618720186
0.767008782261121
0.793062103001686
0.799372481026044
0.810761431571431
0.806188173907898
0.823972779705115
0.835293226030412
0.838987378249495
0.829376544863279
0.825234049449508
0.817350059206505
0.84467850910151
0.820814407245628
0.808919728628897
0.795782817207765
0.807334045519909
0.76936385393018
0.759389651027322
0.745554666080945
0.746526726883985
0.734422405064846
0.73923219874017
0.741296759777362
0.755883340735231
0.747140145503529
0.758658683409278
0.750520406080887
0.745920939114745
0.766451269340275
0.775248990112419
0.737582725282739
0.755384809433252
0.742311228786747
0.748991280252918
0.746245516198055
0.742765593119793
0.736076699767189
0.735947792597105
0.730101177846753
0.753519543775735
0.750098057277225
0.748540884866991
0.744278623570367
0.736428068453935
0.732610094276698
0.757959823046134
0.760861467181421
0.759997336249816
0.739393883410929
0.735354020503385
0.740786174559676
0.724456358575429
0.734506093212022
0.736181191900281
0.702199662303354
0.715866354002022
0.720284642691399
0.746719143108086
0.715197371361081
0.720921748302627
0.732892368879709
0.722495724187385
0.69947448953695
0.694637683993161
0.700184048151822
0.722812520533101
0.707881264551206
0.697054703830562
0.667352796606921
0.715266000860463
0.686133073361416
0.683511538483495
0.649503231575745
0.662065462005035
0.673640314353495
0.666493515126607
0.654664684249562
0.662624765534841
0.64746407324939
0.665408172973457
0.653755138032611
0.660508535526261
0.638230688008123
0.664545226373635
0.659356274728062
0.663033915513411
0.666606175565949
0.668196058784085
0.667558172687571
0.665517897514044
0.644984280466077
0.673407871466161
0.683117235145892
0.673537506465584
0.677356400649836
0.700300145833699
0.665549993857232
0.681782162425704
0.668701542646205
0.704239126266954
0.673936257147242
0.716567427860822
0.707465406949944
0.717240941961505
0.705578662992383
0.748019172399047
0.704344551379451
0.760643849002395
0.764167232480029
0.748320840357044
0.766399200467739
0.844738904168006
0.79238879216035
0.848274411617059
0.825403802114395
0.885519123325245
0.825599296977617
0.900569397411444
0.902227273690242
0.893117085120364
0.911746510897588
0.941449527733853
0.947639382568861
0.975167278861805
0.936922681267127
0.97441308999451
0.951530817111381
1.02275806494256
0.963340293564305
0.955722467892658
0.994612367647487
0.975574416404763
0.874138898502525
0.974010871113514
0.95000420643984
1.05456275907563
0.997841459685323
1.04274688316611
0.998335444869314
1.0399929864349
0.970036697975053
0.951490216814804
1.00435040790251
1.06185766745828
1.03621323903726
1.13783006412671
0.973057578852943
1.06155910236592
0.927614053499076
1.0232512606826
1.01977478986782
1.0439477449484
0.973702491434425
1.02435817452871
0.914580240211251
1.09920326244077
1.04947645413042
1.03761839827399
1.03621973726726
0.986675902033913
0.95519812849892
0.966229916249613
0.92462059957498
1.05796994111978
0.983148469378751
1.00528170124131
0.894828832875608
0.956497984942714
0.993748087300716
0.964886416140279
0.894070626933413
0.996045424690675
0.971626481602562
1.03570693466228
0.950937350258567
0.994763888409863
0.98381614516698
0.96868437284639
0.908349438929946
1.04191857396312
1.05730078184391
1.03613492749968
0.923181324729451
1.04025594417796
1.06003514047192
1.0488083331346
0.935579986515941
1.05053184171563
0.9534362543799
1.09550622635873
0.945528860215143
1.12396411556801
1.1438423481096
1.19465596218886
0.851552590451319
1.10571537795491
1.19151583107573
1.21988966854369
1.22304889925496
1.02441184660611
1.05157518736523
1.11715383707664
1.11324877165232
1.30386398416627
1.29818088931845
1.57879916920836
1.45862142439062
1.24110209064832
1.19458812867856
1.27171524941721
1.31276972761889
1.371200615892
1.11059778227321
1.48569421893417
1.19406008824744
1.31890470945348
1.08800186907564
1.21348438231851
0.933809970163858
1.17504739977193
1.10552859000601
1.6169672540717
1.16186436244616
1.83123872507673
1.25066267504034
1.1494651800996
1.36982818500962
1.47415812745786
0.902981092246304
0.959086283972033
1.40112790929778
1.06364872966385
0.903302170626735
1.34866713890534
0.998653690265385
1.2118188091811
1.26469791458619
5
0.965865276744475
1.4833918107219
2.03645765126731
1.03635663413449
0.899959193305144
2.58110037716184
1.80294546768177
5
1.25592436740197
1.07569988411634
1.6782180922673
5
0.86444296136935
1.20473299598787
1.21128508274063
0.956573771375574
1.28744994064872
1.49956812577739
1.41220318808865
5
0.948919611049345
0.808655821994178
1.08536625948951
1.037309363751
2.56768853390445
1.51736209722336
1.60201808644751
5
5
0.79943562443277
0.604413519218886
