3596
4000.36533379555
650.420452594757
1
2
2
0.071049376871463
0.0570139920186771
0.0750545208352624
0.0563374325877467
0.067829451110205
0.0425937220433382
0.0667270879095842
0.0570523050462096
0.0711645595418982
0.0476850587551041
0.0582413942682126
0.0628322036613052
0.068783240635025
0.0547652107769546
0.0584542190938892
0.0540825544092135
0.0622372295001008
0.0496471153968766
0.0664810627573165
0.0550627692039474
0.0740842939839345
0.0476162305006885
0.0744049779761289
0.0535752760809038
0.0697714602383113
0.0478561965782977
0.0702199978197587
0.0600239459161079
0.0716376049378054
0.0611204048258234
0.0660743542373312
0.0509926784233968
0.0575321409653049
0.0501760137251345
0.0664327468610022
0.0536618825452184
0.066767342609086
0.0557697275150539
0.0812864530771425
0.0545193640126605
0.0707076419158713
0.0524853580850281
0.0616351296031371
0.0521257100531712
0.0633887685293343
0.05731509790488
0.0636702885497256
0.0541228407897491
0.0685479568646328
0.0556979314314987
0.0666084257872535
0.0497231512374265
0.0753194452868074
0.0552338386036375
0.0555349485834079
0.0543344938330689
0.0575064849086857
0.0456049472539393
0.0623592309479513
0.0586301349061873
0.071613561575097
0.0547009528827806
0.0643612750330041
0.0511890058636997
0.0643796701940859
0.0514255839818934
0.0620722486822109
0.0564434629809633
0.0637228726637627
0.0616604328502739
0.0568156731239381
0.054024017998568
0.0683643114386959
0.0399564289950862
0.0741578892047258
0.0474923476317921
0.0633347606675236
0.0465372913572056
0.0535358671161378
0.0484366419708672
0.0784255457036954
0.0405324363542377
0.0565157659076992
0.0495234804033066
0.0488303845098416
0.0512180789499517
0.0745267992043934
0.0430118111988123
0.0742069550598553
0.0482559217024144
0.0597033140339622
0.0508377490633857
0.0642999689009206
0.0458651703413398
0.0612601598020973
0.0481303501501551
0.0590261773464916
0.0428237722522258
0.0684739103582028
0.0401930817908018
0.0680581576590447
0.0397731300002641
0.0866257507565489
0.0323720077994331
0.0751398062227348
0.0601947914734627
0.0415663419581937
0.0688414987788465
0.0594671903440844
0.0540390741569807
0.0595235864660383
0.0477256733587042
0.0524751537825387
0.0456403431092349
0.0638823593773743
0.0573734389541417
0.0721242046549008
0.0436537480488726
0.0558015008911879
0.0405606579735023
0.0657417383098092
0.0353009370649643
0.0721689684762263
0.02940660472203
0.0546714505364511
0.0407312641701691
0.060094117774335
0.0447887950819139
0.0727610280028549
0.0432623122211733
0.0655437687472023
0.0378866027818119
0.057998518636646
0.0238543059546718
0.0876292897976362
0.0314530040738
0.0561008863412005
0.0526574987103993
0.0484071695959654
0.0442285433584097
0.0475479418881082
0.0443224063835809
0.0619743125928187
0.0424303512548808
0.077522906593564
0.0340331606111717
0.0552993428817324
0.0462434348168629
0.0637264570512171
0.0311153585807967
0.0541491112215881
0.0430617863701222
0.0590406066230279
0.0414826631338395
0.0741194649950573
0.0195921738545945
0.100768986806436
0.0193802125391348
0.0942902745283209
0.0291956337415268
0.0539761961425269
0.0415798135842588
0.0545842032651129
0.04457735275834
0.0465458528271927
0.0452201022827268
0.0522272663932054
0.0565314665701584
0.0554173858707614
0.0517047871286672
0.0668041333854697
0.0486400802417638
0.0549878488768464
0.0415078914373374
0.057702272332707
0.0249158042101741
0.0786764963107004
0.0357181875381512
0.0612162390539194
0.0289702995912011
0.0583267294284088
0.0344212811459771
0.0529227812816514
0.0374185853083505
0.0616627804861095
0.0326644111300123
0.0620995698917819
0.0339439867065909
0.0585407546926492
0.0350236600366399
0.0737756444793875
0.0302305278852318
0.0641143920910722
0.0273105921642931
0.0533700901103286
0.0380831516720228
0.0527349395638756
0.0512341258406649
0.0418179089574455
0.0409306438038135
0.0500301773726033
0.0365005288313521
0.0591782167185118
0.0389390560136864
0.0606725237773701
0.0343877745733369
0.0626558534713546
0.0415376756156184
0.0508418813950149
0.041130204737241
0.0562037685777206
0.0427050960485044
0.0504630784007773
0.0594334545564548
0.0471102467222047
0.0477290113640547
0.0454248066325636
0.0535690716220624
0.0664454107710734
0.0442300533655116
0.0561893591310167
0.0448233797319189
0.0615331141826985
0.0433633468888021
0.0486726812474825
0.0419735691839577
0.0478736762663713
0.0492084885802418
0.0514768695142066
0.0428692174975523
0.0521848718414762
0.0481776679342238
0.0581312148638981
0.0403007075261893
0.0620957383033722
0.0478544828897176
0.0658973209110616
0.0382141832915341
0.0570574345624457
0.0392406427131691
0.0503253970505473
0.0403925981591042
0.059271451426564
0.0425955022030835
0.0550137882855129
0.0436448638714973
0.0578510624847575
0.0448972470936364
0.04963108281409
0.0647566751035112
0.0432322948501226
0.065625585407938
0.0439793226577451
0.0609607664813573
0.0453034304377274
0.0632455931116635
0.0510696183963648
0.053988181488485
0.0675771916197751
0.0594866775113357
0.0449696957222606
0.0528528900996833
0.0544578470983016
0.0587041562763102
0.0718611868191052
0.0537614202063344
0.079844355868647
0.0429872588829811
0.0638368068616718
0.0544287370795322
0.0454352015157499
0.0691014061320272
0.0620957412500899
0.0431057816833563
0.0627873989242537
0.050316974059831
0.0602270012756574
0.045913485175277
0.058283940978265
0.043009994813037
0.0795054335959474
0.0517893426676704
0.100088820654556
0.0643510330963924
0.0501284313125214
0.0698535728885206
0.0559229010264004
0.0606373712225013
0.0419918263706391
0.0601276006908824
0.0573935224727948
0.0703072275327948
0.0586973049640791
0.0690936206550737
0.0482929666311281
0.0652930602509165
0.0611605629569903
0.062621491378639
0.0604964991337632
0.0616691632834405
0.0681352068745326
0.063066101156507
0.0614019143187216
0.0601397690422051
0.066727017387239
0.054618799652797
0.075766033902764
0.0659304556133712
0.0667339108911635
0.0730600365866648
0.0644991608752805
0.052304239730941
0.0625866801779151
0.0617409791938337
0.0638584171902274
0.0634934968800018
0.0697188172226643
0.0622588067455371
0.0707677475521882
0.0589179158685905
0.0752323280017558
0.0659381293284016
0.0773954748632952
0.0597237764225282
0.0687495349054165
0.0723294959795623
0.0772464860447648
0.0671631244621489
0.0734852778683482
0.08296637515341
0.0715461627348059
0.0650955104902305
0.0896434042683626
0.0501465993322016
0.0909432228458803
0.0668300091381224
0.0800001824239026
0.0770470201688746
0.0775516293842917
0.0743758851046427
0.0838797551125741
0.080921449069722
0.0903364560333581
0.0854757013917309
0.092257472684835
0.090059885378605
0.105063721909778
0.0982638915189964
0.0871964121821023
0.0876717124245672
0.092258682213558
0.106073930273074
0.0738520388927175
0.113400892374591
0.0873430144914551
0.0900407161972225
0.10305120064764
0.0963588551596959
0.103050811757642
0.102334039441669
0.114276457127024
0.095584398365972
0.117158074537385
0.108416654639242
0.130391514815776
0.111308845750894
0.123845791180276
0.11513034710829
0.127717470184165
0.124549751907585
0.130990229985013
0.118794872676902
0.137066345389952
0.123965306136653
0.176551077502968
0.116766067678438
0.163270231628838
0.130931397577356
0.144219124077054
0.141336527214804
0.141822299709916
0.151938064932223
0.162376925221289
0.154122373145808
0.162133105566572
0.163127943091359
0.164323619516247
0.172885964398501
0.17220196988699
0.169877908474256
0.180311193363719
0.198005912264469
0.184804482959471
0.190790205349975
0.180565455309
0.205721236571918
0.19373554110094
0.241933223567203
0.201510858120067
0.200320204369666
0.202319384640196
0.210263672870744
0.204828409605409
0.213420664537868
0.217995867381232
0.226642938408538
0.256882015526713
0.230924394932237
0.251649329683612
0.23693437961924
0.239442277290815
0.258231515287109
0.234042185798515
0.260623168364559
0.286460911089877
0.277297317398508
0.257265359685233
0.278411609437375
0.262224559190495
0.281366543176651
0.287119712243536
0.276675806053158
0.286174672249859
0.282095875276375
0.291676075126263
0.291313715761047
0.30408050122746
0.292550523785631
0.312834058481738
0.31160935201693
0.326807722284235
0.329871381803197
0.335659130626625
0.343921324681125
0.33299805410376
0.331855658455993
0.335755154528752
0.34779129938231
0.338448679077743
0.364329488511878
0.372080537307451
0.385076520503138
0.377836381877909
0.364912629928701
0.371401857979497
0.365287254608834
0.373017240199605
0.373107582849238
0.398377390037615
0.400736352261805
0.419348668200108
0.422551957538922
0.431977922611713
0.434882235058285
0.428453211276209
0.431004790013806
0.42569336808921
0.441804913504921
0.436603706394066
0.456605250055121
0.44792630600464
0.475022888776065
0.470563293406723
0.501757316550737
0.487703608421792
0.486027774202798
0.487074848805879
0.476909010327593
0.480792813682735
0.476921313799573
0.504601986006368
0.51871386740365
0.516704027711669
0.506313188595806
0.525929494805287
0.52337990282307
0.53205741856957
0.553121339925336
0.561116964773538
0.562427068370358
0.549890353378163
0.553953676451112
0.572351047308615
0.578846098413314
0.5826187614934
0.587404185740418
0.569857055778128
0.614623730976111
0.579284988464626
0.62193421912595
0.624700085862026
0.608685073473976
0.605619232172921
0.634936769432964
0.622961406841036
0.653642868590209
0.641628317431644
0.667803076939723
0.669809643433125
0.655866578132844
0.647126202586016
0.705246676957128
0.672445032340572
0.696654172230607
0.673008288481533
0.707192452278426
0.698978780962174
0.710869558224318
0.683296139591161
0.691322296723631
0.71280167266082
0.730283638139901
0.746965266200005
0.74906606568835
0.716454275296427
0.787066485012598
0.721380555494739
0.747714720439166
0.753221452629355
0.78253499148272
0.746688720231782
0.790858967541228
0.794864522363858
0.837934242148219
0.80141471386786
0.816176310777898
0.806835455782582
0.811510559387966
0.785977293375529
0.843928755698449
0.812602199762975
0.881986897214983
0.79187733648365
0.859701528289284
0.854094453635383
0.906405283004704
0.842971934405956
0.855683654220589
0.882986408699493
0.937030705857322
0.881816728388325
0.96493417995559
0.909970245264279
0.986181263980163
0.935614234335367
0.952038739201648
0.875472688808062
0.984338854440757
0.967302854753072
0.929588527556677
0.907403124580578
0.90175980200012
0.92254675781233
0.945709926581288
0.92243368505279
1.00244355640233
0.955847222025992
1.01434193178011
1.05905730789451
1.0227515439368
0.984242231035995
1.09563365071361
0.978053451654084
1.07278156068685
0.999435363661835
1.07694313247743
1.05899189561873
1.04261294999704
1.02389701747311
1.10293353704274
0.995953961643202
1.0671812076254
1.03826890965252
1.17191640047952
1.12016394379497
1.11685332036055
1.06315728580297
1.21195926857302
1.05448731922838
1.07969162731658
1.09390544330186
1.23103621071912
1.09572625299914
1.20522851293295
1.10631131686502
1.18725888205862
1.10830366862944
1.25726630535773
1.13738988225492
1.17816696487481
1.14471339803183
1.25037512619899
1.18941485962248
1.21124774024287
1.14577277811191
1.23856052584099
1.11625763142339
1.30170906835809
1.19834814199304
1.21427980944633
1.22817286484595
1.27495323440389
1.22976903586955
1.26178709130259
1.2390333631137
1.31187228947307
1.21383808139607
1.27225718252146
1.23155736185459
1.32600695384802
1.26738675698554
1.33825385570625
1.29334488357092
1.54928084123355
1.27559048240353
1.285708769177
1.29153013741995
1.52989272760187
1.32102964653348
1.39356708656612
1.23703525076674
1.49983801197991
1.407050153344
1.64175104526322
1.30864137410103
1.55315774693054
1.22445917824911
1.30116515347399
1.33747807892921
1.50831953514436
1.27278332899532
1.3852662944103
1.3542478465181
1.43947887830399
1.35126513823911
1.8612491480062
1.40031248654312
1.43130379970678
1.3583191154821
1.54728281621299
1.36033544357562
1.61213987061596
1.28517548205648
1.522898142809
1.41657177717868
1.71148296280754
1.35142696008817
1.46715380150712
1.45887827237695
1.67510049108909
1.52158298217295
1.31972276901595
1.29828787049063
1.54525911899144
1.54561945597644
1.66747202352833
1.43079960693511
1.63865285001477
1.46683214840974
1.67357753867636
1.48257336049362
1.66788006027903
1.36300805795875
1.66224546254759
1.61527184238786
1.64882180180803
1.46112570968188
1.64428814925139
1.62103884119323
1.59961050211489
1.41251201234826
1.62299011050199
1.43622297760597
1.51935319169465
1.51165990404155
1.63442324228061
1.54878482381676
1.81896463728385
1.49415784358062
1.85882984412052
1.75892399949611
1.78219606258999
1.38160936670885
1.79393329445881
1.7042754923773
2.00675798982492
1.51297136735918
1.78991107111117
1.69959425289984
2.02399208170895
1.57377162301581
1.62116373025746
1.54195893828701
1.723601354881
1.53815392769497
1.4147174970135
1.55178244769519
1.69951713891682
1.46179041685651
1.71133635297394
1.56503868550994
1.8110589438792
1.64069175187047
1.65156763347308
1.58967636577046
1.63745170094508
1.51004838302719
1.46801896708432
1.51928416182612
2.12699357512318
1.66548767406081
1.64853429913976
1.5084445090945
1.71873086703875
1.66039136088044
1.84846354070374
1.60655061919383
1.62057415036451
1.86805683626159
1.76208271496545
1.51141375558369
1.44883403971159
1.63709969886786
1.78440294298659
1.53728160485081
1.50630687382451
1.60344623455518
1.76851733889939
1.71543727529833
2.24338979573869
1.47924564633439
1.73463386004698
1.4816001661632
2.08961761024285
1.72994004481921
1.73343526517808
1.75097603166672
1.82568641688841
1.47714225790383
1.74591179142999
1.58997342665526
1.69805750448836
1.52420457354945
1.66748996718173
1.6564304289019
1.63888194064218
1.58320201885518
1.85312062080597
1.49501178763242
2.08326456451646
1.58006273415016
1.69811291803374
1.89509272553197
1.73766868139062
1.85757440162964
1.93698179318307
1.54549926339344
1.63007929424221
1.5535085935592
1.64979231458165
1.70535126965179
1.94209689954018
1.53171193134691
1.95242177018379
1.76839172179795
1.95308581321506
1.6543320869619
1.63612437437369
1.58212413134786
1.82977242027985
1.58696595872145
1.72065202830944
1.57863047599795
2.00376559201326
1.56966116356715
1.7342674193903
1.58731428222328
1.9404040519095
1.84658730336623
1.73700260670904
1.50589621370959
1.70944176994426
1.41412325285915
1.74740881632613
1.67776182437389
1.88537917237164
1.5195316799682
1.91962020929653
1.88349054873431
1.8027395946987
1.58900257680481
1.6384899735504
1.49161645074169
1.56401284836702
1.63987146340842
1.57046367666121
1.66506614084786
1.58889217311032
1.51703591836928
1.95788829079475
1.71325098199317
1.83462615064198
1.50290002780033
1.89485926551165
1.73225229487222
1.84512879754168
1.63823626458705
1.60844727570971
1.5267443942964
1.81488262647776
1.68965210413032
1.73947660374901
1.73520640648303
1.64898721302517
1.52677301465705
1.6484627219574
1.56532100103105
1.62674204615754
1.5439862646566
1.64813658246008
1.45566478056649
1.61973047646909
1.58234386646362
1.5077659488958
1.51659182918456
1.7228169039088
1.39161793328092
1.80129444659796
1.57025126212314
1.58455794475167
1.51467627862005
1.48554328894871
1.65138204693685
1.65763459402001
1.49265587216696
1.62397553377192
1.55210843159667
1.44504228975183
1.51597209744909
1.61381060005219
1.50875301284057
1.60688173871218
1.42318632113681
1.84104535348188
1.49236135206378
1.45177217778669
1.56361826238806
1.5824973714975
1.47942822924881
1.52810769583488
1.46449166092513
1.48458927567248
1.41136817532907
1.46853156627301
1.35732126441507
1.605979979481
1.44759879906459
1.50166542298117
1.40822999475452
1.51735697696674
1.36892028245711
1.51398982015399
1.42647764969328
1.48665600418853
1.39434252891588
1.45936903665052
1.29375200040415
1.40654848802175
1.3976373116047
1.4215891404306
1.38617832761972
1.42074402640501
1.33197695309543
1.43849810315596
1.32821532362735
1.39136085836565
1.40501864452731
1.43150515348996
1.38025650593006
1.35504459653649
1.29381548119086
1.34486217988396
1.34193604172101
1.38620119554617
1.25694854928209
1.32867008486808
1.25924602976606
1.34964427490524
1.29950970560654
1.36194049275542
1.24002510279478
1.32697814561003
1.25110418811467
1.27527051618443
1.28937634998745
1.27763689517423
1.22194290480686
1.33045630872114
1.20458321808094
1.26052243809851
1.24074496347916
1.29106580876573
1.22217603236339
1.32189962086478
1.23422235425776
1.20719563150776
1.15078169988754
1.18337198317534
1.1854718454047
1.18859912663468
1.1262031033613
1.2031561021246
1.13154445427381
1.22152807123422
1.11676311097164
1.16531283606704
1.10868530790322
1.14295441696179
1.10699700070405
1.13787591729868
1.06138950199643
1.12203147585119
1.07305354337385
1.09892716899666
1.06082347096327
1.09101079956
1.04911073165732
1.07198892268331
1.06460909626458
1.11377514714614
1.0725598377416
1.07960332095272
0.982207053977153
1.01960783280675
1.02174119552951
1.01567957935038
1.01899543419691
1.03003031452281
0.995467419163267
1.00455854063315
0.987802225379344
1.03677671645648
0.93559629052513
0.973855371935741
0.941440522607977
0.972665775467968
0.96152612259311
0.970357893215889
0.917619289258098
0.984375843228264
0.924060939168886
0.945745348088894
0.91420101267232
0.940440749667206
0.90843678528539
0.93412321217039
0.888890896754284
0.947932345434313
0.893971330399521
0.89181649649835
0.867745222719118
0.893190881168355
0.880988348356948
0.870589458852819
0.850651020845067
0.867638773745633
0.858406287367504
0.879808968746758
0.821954297018027
0.849537157185287
0.812392815289651
0.84085196649142
0.816974780522453
0.81606992218594
0.798267121883803
0.821593774109686
0.783973023514144
0.824849434155557
0.800239911084975
0.809913732184442
0.779143967203787
0.80564145189511
0.766744843436452
0.781680152435315
0.753816182941997
0.774625611350461
0.771825497720964
0.761459909490806
0.748762344128828
0.747363891899216
0.739542626147523
0.757787401305196
0.745855239732729
0.745339872540353
0.715870741148242
0.741411065291473
0.709179759190496
0.74634446589172
0.702945231183419
0.713113154001444
0.698241117824141
0.694359448520994
0.68712769596445
0.705707640981034
0.683543332990559
0.700011384748832
0.683613416532047
0.680878654036815
0.64224692079302
0.672284665932484
0.648048050027788
0.66637831939819
0.656987089404718
0.662359045463637
0.636050747006526
0.660228570249285
0.641497962675809
0.643166706225335
0.627307953130849
0.647885331216507
0.626061828432141
0.635807531989345
0.628184944679577
0.625784545590137
0.605110270714162
0.603871771074582
0.594401554187862
0.610352549308405
0.59729376028291
0.60625596551964
0.605382160678323
0.59945425667456
0.575908720648173
0.594346185711997
0.581557857863495
0.575106499281891
0.558240916672602
0.572884915530311
0.554224636859021
0.585152151796652
0.564230580945833
0.55860496276815
0.546877548768316
0.573331491749801
0.537072065155454
0.558119028212856
0.542995396127156
0.545564247529724
0.534351785467818
0.535565418554663
0.520883911767248
0.53838971921951
0.532412278206546
0.546499651770708
0.523589626474352
0.523074674899736
0.524101990284693
0.527119460903346
0.511383627640629
0.523052801244127
0.508053997928049
0.52293754190748
0.515824479827472
0.517514441005472
0.517861916261238
0.511162630321741
0.499500892955989
0.505039302088075
0.485888159766981
0.501193812852834
0.504794503066521
0.504208181483534
0.491451832100188
0.491474388226434
0.486661883828317
0.494466499164574
0.490187793418197
0.505118141125232
0.485465850943946
0.504308997909022
0.49192795621657
0.510394511554068
0.477093780206543
0.496567393445559
0.48843244906865
0.502235316397949
0.488329517957014
0.499244451610892
0.488029717234686
0.494847119580146
0.48979117364169
0.511775841473185
0.493443016224043
0.513469925673912
0.507074907843359
0.510251585965572
0.502080409945349
0.506838111301282
0.508173088697752
0.520900181467616
0.516268279167096
0.522909065095936
0.519289037300641
0.520041183592268
0.516665623577034
0.529531028391916
0.524069594629605
0.541533416334955
0.518369152620504
0.543489742301048
0.536946297898154
0.545041812361495
0.53074207589082
0.5445896908218
0.541891235977349
0.565754011856677
0.549970971075979
0.563889535564091
0.559622105318303
0.57213595697627
0.566465107607517
0.579263484243142
0.57536055252644
0.597985441835528
0.593317931149426
0.593324609790565
0.596356640365311
0.623104122644388
0.60494465532794
0.622923224087706
0.615178327718487
0.638648979447571
0.618915453491973
0.631615129810295
0.636485972244326
0.661855712165842
0.631539093708532
0.662367128367364
0.656326476426878
0.678526273377048
0.661815997541742
0.696806267708566
0.678606650462512
0.692035735094333
0.684708334220057
0.700845282335443
0.680175166296094
0.69809778404509
0.702272451698651
0.699037316885848
0.681599014646818
0.695881129829839
0.702823516557164
0.719255597560718
0.690015972247915
0.695158984055679
0.690853547379501
0.704250841295944
0.696467022416945
0.697553971493942
0.68904395551513
0.701121261418429
0.685360389570624
0.684849465687734
0.67194599821254
0.695849921998077
0.68088785798331
0.670705498007508
0.679974554861872
0.67311129377362
0.660659488172637
0.667476322643229
0.646336174112095
0.664338873565744
0.660429413293779
0.674630247954828
0.67062670175593
0.68149390432551
0.660596161637043
0.672692337000541
0.658501684768148
0.658533109208771
0.653250492095532
0.682897743264842
0.662362422338513
0.669068795803187
0.662189530858275
0.672578710125808
0.655872089181443
0.664526165717034
0.648650395051905
0.658409191129833
0.652781448632389
0.669503731761985
0.647350673132673
0.652487616138622
0.651961644618772
0.665510776256834
0.638979049811049
0.648770610706117
0.633022782880009
0.63309439127699
0.629922800016639
0.642947429809143
0.624843349080834
0.629729629735215
0.626171657181027
0.63634159588891
0.614571274477693
0.624309655689651
0.614659726019778
0.611455075239587
0.587133827872898
0.605819761274289
0.573568296942513
0.5835814211784
0.580450695794383
0.588818518342958
0.564546611136481
0.577361888928301
0.571405975664137
0.567664619370501
0.556187103733472
0.56018097140994
0.544585885203679
0.556410314632151
0.546916910650326
0.546204044998358
0.535741899645651
0.527055801401858
0.520542650232993
0.534878689614817
0.524903958711475
0.527540346782881
0.514227432712162
0.512425268831456
0.505343960090623
0.51282444692226
0.501819925132589
0.504314610193448
0.488529740396199
0.494243042044962
0.491391426254048
0.488010769175006
0.484814707534302
0.485067545771504
0.477550688230838
0.479825567108698
0.464609684628803
0.475277871723032
0.465837513959343
0.463487598901104
0.461827194741311
0.468813279304604
0.459358374571183
0.460282571462989
0.455031895754246
0.454228370288983
0.451142606374744
0.447256696655908
0.440799812863749
0.448338304369042
0.431766062645269
0.445011583058612
0.435325674687895
0.431090589389777
0.437835286645812
0.430041032775509
0.427684353410033
0.43409951997984
0.422285686230026
0.429583916320947
0.416432726413763
0.420990642768792
0.417268592343986
0.41921955425816
0.411115405330995
0.416808029444616
0.410211678265215
0.413371460485493
0.399601851137201
0.405342601164186
0.407442486718676
0.409253619986621
0.399827788507861
0.403716089801456
0.400701052267319
0.407113364928058
0.396847903963129
0.401390309443627
0.394303569849263
0.395189743595473
0.38649535613227
0.390803083970681
0.389547055057224
0.393620536244335
0.387568217757975
0.392134238609757
0.383581163894747
0.384261321788383
0.377221584528366
0.384345955160261
0.384653113549586
0.384310058420081
0.374685982278793
0.387926089001884
0.37750232479764
0.374291124246257
0.376829448842616
0.376320937235724
0.370292968029421
0.381687595040252
0.370236436953674
0.375359532363881
0.364524189132946
0.372352536027969
0.366227118439778
0.368177633024404
0.364159643479209
0.361838970945035
0.359580391596801
0.360076553170556
0.361352924645047
0.368935495358737
0.36460804965979
0.36343542955808
0.353997585376395
0.358659833247603
0.353581210123185
0.35625904708803
0.356401938132847
0.358864623914605
0.350932096625895
0.357311214944526
0.354014835488999
0.35447112639628
0.349713813611437
0.355888028696816
0.34979037493104
0.355342495231464
0.349008133309866
0.351511143580915
0.346474113962361
0.34825079237304
0.34412999702642
0.344600677081469
0.336497218035139
0.340780512774943
0.341175607283202
0.345806615286671
0.343846375415157
0.344737465497884
0.34469509268264
0.339923231838949
0.342039874233568
0.343763013743315
0.340516355328272
0.347511082499381
0.335459096660312
0.336747820165543
0.340508635369282
0.339049527974555
0.33617576036438
0.342922318895362
0.336006790008686
0.339789110707793
0.334769783276914
0.333830709849174
0.330662871580293
0.33556092459983
0.331823226197259
0.329224102136267
0.329712356955328
0.33100097029632
0.328774552388127
0.336031917050748
0.326248692631674
0.330604699527606
0.325549621810048
0.327562156313923
0.326510435075373
0.331024094831426
0.322182060936439
0.321673219496235
0.32366695675642
0.326894233909605
0.323670332209056
0.327617202776918
0.319651269800578
0.327570101876202
0.322754593277306
0.320039899145003
0.318750007627238
0.319220953637731
0.317389132786461
0.316103681063843
0.316204938327364
0.316342348472503
0.314761152347439
0.313389165089802
0.313303260058921
0.312481589019826
0.306436160582101
0.311840685811617
0.310398472533743
0.31127144253915
0.30947352637482
0.312758576459224
0.306495426413153
0.305947652968234
0.310773108822318
0.312226233087735
0.310758637529047
0.309008347533303
0.304908402901226
0.307696447082865
0.303058620272862
0.302391355635175
0.298696496700761
0.306847066456263
0.302632794913143
0.298452141735941
0.296290405188337
0.2983229750294
0.29638024580612
0.29747612876053
0.295550621819341
0.298988704322937
0.296596215210835
0.297955856430465
0.293608795060505
0.294465473372763
0.293635290368385
0.293494780621387
0.290373688970869
0.28783578950054
0.288237246427853
0.290397714499728
0.283452057502198
0.284378075559437
0.283994796648485
0.287137155088925
0.280380280667011
0.282748374220587
0.282785392826647
0.282519316351788
0.278686674352932
0.281026426853197
0.277998454914439
0.282320922566409
0.277254712928174
0.273619116525747
0.277093869511569
0.275277255643525
0.270219363028496
0.276214190331403
0.273724583953997
0.275163862115492
0.269568288348501
0.271213767526204
0.267631241355434
0.266075280594511
0.268685041762457
0.269605543651619
0.260420654060215
0.262042465337536
0.262634193687251
0.264419546044584
0.260774397201165
0.262855786362182
0.262289213569206
0.260145660200886
0.255044287857287
0.257378269101014
0.258001882661366
0.25839626542758
0.256353014932565
0.258643724019456
0.255929191056937
0.251339591989973
0.254186779988879
0.257648761565884
0.254109330095307
0.253292729038813
0.249687109670878
0.251745124762891
0.251991007381508
0.245648599600307
0.246123443582266
0.251532863362659
0.249181685273491
0.250328217620743
0.243132910405957
0.246503847329037
0.246310292947731
0.247980027186017
0.243980145764571
0.24493027458701
0.245376480893903
0.242936909615469
0.240091551644054
0.244827438922086
0.240466122432816
0.239464612182092
0.241898754566318
0.238920359513986
0.236354433854261
0.237614728654929
0.237315032179657
0.239798890961606
0.235015503380087
0.242266686139766
0.235938300256088
0.232951241252612
0.234640931029177
0.233868981142058
0.235029752624638
0.235680805837611
0.231044859079958
0.231358298162397
0.235350446136625
0.234533718029363
0.231096257198895
0.229736791248748
0.230635579035702
0.233211952469966
0.230369242814688
0.227363706463467
0.226516593934167
0.23489364040873
0.228532004688655
0.225906086220534
0.228848430590878
0.226461904419994
0.22845892880151
0.229282548656227
0.228145905047556
0.228571736906893
0.227526375047513
0.225370231482139
0.227933069403139
0.229210357937723
0.224634320345064
0.224786423911719
0.226190338145104
0.224519898617851
0.222301937778362
0.223191289905473
0.222745900866588
0.219446460428833
0.222939958834839
0.221619545325216
0.220077989305374
0.220766698485482
0.224122189047625
0.226318377752806
0.222137941717814
0.218749314413939
0.219188795049755
0.219568166998364
0.22163676688688
0.221619864461959
0.219965345472481
0.218195167490425
0.218877353792513
0.214261254396002
0.217217475860449
0.216956650547075
0.215922078931379
0.215217032454387
0.21202024931466
0.213630479875383
0.212637613766714
0.215134625945077
0.215500795233432
0.216746367510022
0.213443686512508
0.210253805852695
0.213887553845124
0.218240214314952
0.210263678520844
0.21303819326936
0.214889517224504
0.211424902191807
0.211846043769112
0.212578407610965
0.211796722881802
0.208551640979236
0.208370749204847
0.209119486969233
0.212352356711382
0.208897691365395
0.207480283839629
0.207680480355474
0.211192685866828
0.207935250153703
0.204711721561941
0.205331287728422
0.210332843270459
0.208474150813565
0.207460860450042
0.207893170416842
0.208111842416297
0.207265538581183
0.209538166398663
0.209015144317156
0.20682688970032
0.208792042898847
0.204041743235003
0.205312691013962
0.204522826323704
0.199459565861516
0.203759315601171
0.201922129738374
0.208820067091729
0.202717799418802
0.205883259520863
0.205882052942497
0.204857249845151
0.200707670238355
0.203878117385667
0.198935664324272
0.199509345480879
0.201271455080644
0.199601287580352
0.197977930906459
0.20123560439852
0.198407515914667
0.19961586790712
0.199299649311624
0.201781178089271
0.194515138475069
0.19634055088629
0.195555175318657
0.1961577245104
0.197582223577814
0.195992506387594
0.195657387058302
0.196998519788685
0.191469261271287
0.194003772435762
0.193634736556122
0.19584106750148
0.191064263916221
0.190491202818659
0.191918103593121
0.191948977733691
0.187851746332059
0.187199350042334
0.187149567906903
0.19163709311706
0.190228720665321
0.189058798833249
0.18388362566181
0.185763559141925
0.189199013913256
0.185517589489962
0.181450328372857
0.186851647136428
0.189703528081974
0.185380232367524
0.185422410622197
0.187604397018162
0.185820514873848
0.18482462953044
0.1798040733332
0.18825010085431
0.182294321776159
0.182773932591904
0.180167647116924
0.182954790308714
0.180799707675511
0.183672264804656
0.183264694251754
0.180525518283881
0.177363974203248
0.178851300196962
0.184281142571762
0.18015578544895
0.175408981221973
0.177825295727209
0.178758480000992
0.177877887078026
0.175299603640613
0.176359622225445
0.174853065734189
0.174507649283642
0.169657232614982
0.175223783077921
0.17202409568112
0.172186512507541
0.174121145761865
0.176015321909937
0.171303577419688
0.174572314296185
0.167795386332178
0.169440209443482
0.167957940506314
0.168759875920605
0.164712102523606
0.167782043191601
0.167865920404582
0.166956126926116
0.167643465452844
0.169925400477506
0.164561784377221
0.166803209965998
0.165139994409343
0.165246088025663
0.165289425890614
0.164400632822477
0.162899082069558
0.166567760222836
0.166139344535889
0.168414878925893
0.161178951242606
0.161764773065353
0.161444949498063
0.164874158010244
0.162212004738501
0.164149775675361
0.15715437063949
0.163713626401543
0.160287233671031
0.161082413979474
0.16250618145517
0.161134834661622
0.156686136738107
0.163192466873396
0.157863087314262
0.16122877428949
0.159415044343496
0.160930811484032
0.159830112303291
0.159969067483912
0.156751347546682
0.158381558932658
0.155623685324945
0.159128861311099
0.154669253329042
0.160717444346828
0.154364503480887
0.157456268719828
0.151839346515929
0.160926804006135
0.148662598591365
0.155368200143879
0.149019542353918
0.160464142027511
0.152392360477402
0.159048041002373
0.148809076418448
0.152760290305493
0.143222112746739
0.15908789572731
0.143863370091727
0.153300001347237
0.148202203775392
0.153013661424114
0.136779205601864
0.152548825552585
0.138103437224717
0.155622869620368
0.14342543393731
0.149105460389132
0.144024786840526
0.151373393786339
0.146311203750852
0.155417299211281
0.137806556697721
0.154691005515163
0.14428227434768
0.15298421175111
0.136635397911833
0.157938791508143
0.136929879243829
0.155277082545361
0.135178002499
0.152578387814824
0.135048506016426
0.148318194304955
0.134267726531797
0.155108423137195
0.1355887739469
0.155025358506045
0.134461466352058
0.164071644558011
0.136994435277419
0.152869070724768
0.126158169167998
0.149905550608279
0.130426817153483
0.159677503526152
0.142903533578815
0.151803104001419
0.137123103323298
0.147440631026453
0.14569591238644
0.146041630860466
0.149731845308689
0.136063359882559
0.15338887326223
0.132814483977589
0.164655605220178
0.121926567705724
0.166870722777926
0.122245692354969
0.164725505525287
0.120587816636285
0.166985858781398
0.123155184959443
0.158284908155945
0.133620851966496
0.153658085868026
0.136264309889038
0.148159631446732
0.143449161367532
0.145011628366627
0.144592434103918
0.144716418968611
0.138926509531617
0.146432180615542
0.137709821374732
0.146581542830124
0.141670723471868
0.144857801443518
0.138030071463424
0.145926294480016
0.138478319490176
0.145683962872661
0.139343475277953
0.147343943474809
0.141685049725907
0.143390538069857
0.144261654064696
0.14549351521931
0.13864850730672
0.143346435384915
0.141804215881325
0.14201782300426
0.139607584965611
0.14467646275256
0.140940878108441
0.142232560859867
0.142491997483923
0.145227642643729
0.140594441317418
0.145137652449055
0.138538958155695
0.144784365953877
0.141096626367968
0.147171442622389
0.143359712079209
0.146173840760029
0.142747544800259
0.143737425237811
0.14144590787051
0.146667166809675
0.142050542265431
0.143523565848246
0.143204717099918
0.145148196850292
0.141114161681205
0.144624162002031
0.141385781278336
0.142295384565103
0.141288260849931
0.143918479273688
0.141734647673372
0.145824226287294
0.144102794774116
0.147190658390259
0.141890401039722
0.144113061239687
0.143008604911438
0.144621646648149
0.142843848561276
0.143905850513737
0.144205491386579
0.142054669992486
0.141123338286574
0.143592166064285
0.14225256557669
0.14561160397981
0.143275823259658
0.145288410473954
0.1434292053379
0.142536682555583
0.144239033164042
0.141476123235193
0.143731123614107
0.142362891011383
0.142462000333227
0.145545097505405
0.142109566119208
0.145472388226359
0.145014469672842
0.144353299266784
0.145531762962714
0.145846930533046
0.14297990978248
0.143561061937124
0.144030412389952
0.143072995011591
0.144016079692914
0.145959930479146
0.146788768241999
0.14571961969163
0.143978918552109
0.144675134050078
0.146680990961844
0.145248591859283
0.146343743679472
0.146582772817666
0.145883383681024
0.147868096663142
0.145603302721494
0.146250904098482
0.146647715281781
0.146367335338329
0.146817551866545
0.147230862230333
0.147077705840056
0.147490012314285
0.147134871917581
0.150593072738577
0.149097205730425
0.14808683774729
0.149232926551243
0.147144682732357
0.147085125474874
0.151962921968052
0.148044621293741
0.147579461589147
0.147995860597143
0.149565370964323
0.147506853491389
0.150827026954561
0.148379758043841
0.150550153667239
0.152054550660827
0.151180351285605
0.151292189921657
0.148127326809752
0.150995851090736
0.151194851472019
0.14938078315089
0.150506479400527
0.152891979852514
0.149246917137957
0.152633065186582
0.151216549860206
0.151269497631416
0.152437519051887
0.154413817381866
0.153408618967596
0.152979053922494
0.15205538759319
0.150602842295387
0.152237216176498
0.154004520460144
0.154272083538085
0.151414633222302
0.151237281928713
0.152573175832844
0.151702447204977
0.153123694539386
0.155067907906895
0.156371641355309
0.15435947497526
0.155757436868063
0.154832162437962
0.156298931976542
0.156564239934846
0.152688947822375
0.156605538492171
0.156973996706456
0.15630188899205
0.157550310320634
0.156659554503698
0.154392294721183
0.160821212837131
0.157867096685397
0.15542068689449
0.155975754567925
0.157463682871073
0.158086267678846
0.156880531002968
0.156212679207258
0.155129093596117
0.155719865139886
0.158869881977838
0.159097056543253
0.153843008446624
0.157641097181955
0.154403071033414
0.1547668736139
0.154833447426441
0.153396947305366
0.157400415732272
0.15484297637788
0.154023537189897
0.152868572372883
0.152098184072198
0.154870692719888
0.154542692225429
0.15551862556988
0.154838776610322
0.156949422737241
0.153176267433567
0.154129476327023
0.15450484197842
0.154609837727945
0.155694211232291
0.152429825645904
0.151940795152555
0.151402798000665
0.152569834460351
0.153282701223701
0.153206755242718
0.154545776941633
0.150999648078535
0.15414883711925
0.153658329688996
0.154034669467007
0.151910470406965
0.153684855267135
0.154155863354446
0.151735199664655
0.150608435149571
0.152548622291499
0.152060157658783
0.152347023860045
0.152846496004808
0.152155513549612
0.150644659338703
0.150158124800419
0.151304409018061
0.152709801881721
0.151074918351623
0.149342483802628
0.148932973196167
0.151257725360607
0.150095569652191
0.151273105272383
0.149167885991487
0.149079783523911
0.148011013573012
0.152447365812587
0.150672749529511
0.148116873462444
0.150368490615588
0.148691907484233
0.148838301664086
0.151659511400174
0.149712659282733
0.152251888595328
0.14678481145598
0.147517007167088
0.152210692189734
0.14770287142029
0.149263722213285
0.148406089152487
0.146966625299985
0.14487258297821
0.147337784585185
0.150248646045019
0.145011755199857
0.147670398658083
0.146669002103963
0.14800597669782
0.146462892525863
0.147208267816
0.144937025240064
0.146126433862808
0.144095349829473
0.151389256063418
0.146349174953156
0.14709623148485
0.14412361629509
0.147848119575319
0.14822219557295
0.146511928174551
0.144543614433148
0.145428443898512
0.146731092576678
0.145913414048415
0.14448806711451
0.145831368646099
0.144316466092345
0.143986549260935
0.145638179053982
0.143814671316583
0.144992084618811
0.142949395150048
0.140859006042805
0.141900187017026
0.142758294722675
0.144242552997227
0.143298816228078
0.145132510875662
0.144272011709086
0.145361989876919
0.140967124593577
0.144012139403482
0.140154547307386
0.13970957493051
0.138805113917584
0.143486960101447
0.13979871519956
0.138196772883334
0.136566728162151
0.137992463406572
0.137191621892622
0.137158301019565
0.137045925284684
0.13673457774706
0.136557337838549
0.135032096374283
0.133563764471689
0.13275668960023
0.135541412297018
0.132966233690377
0.132774581884002
0.134727544129993
0.135169737861361
0.133005126289387
0.131026858501022
0.135852408326162
0.128198963940566
0.132679730751115
0.127223834724846
0.13058122037988
0.128000630623715
0.129614395488346
0.129076430684132
0.131917113546846
0.12989420988843
0.127553710820037
0.124737127046537
0.125179828182323
0.125753559845182
0.124840771346478
0.124548028071983
0.127344546319866
0.122529882555968
0.127687039735846
0.122852778178191
0.124674449089082
0.120521805736898
0.125004050958961
0.122367431998777
0.124491683867389
0.121990198194439
0.123199363043508
0.121898825321264
0.121622200830922
0.122952001418196
0.12262746871822
0.121015718557754
0.119326068900677
0.122954875679461
0.122255283244251
0.120829993393837
0.119220637709117
0.119050507264426
0.120465270371412
0.118682207255216
0.117152343138559
0.118039517093235
0.121958054739526
0.119684733691043
0.117693620967104
0.119223656614605
0.119907016078424
0.116335662779482
0.116582460272146
0.11756881318895
0.117562212446658
0.117907700272496
0.119266377473616
0.119309311769296
0.119049157962333
0.116809449043445
0.11560591984081
0.118736243001929
0.115376008902869
0.118031315395637
0.115209956090581
0.116816116484069
0.116679599053924
0.11540806341986
0.118753431321469
0.115369532777376
0.116373806599494
0.114031224741264
0.113755153781012
0.113630859056155
0.115018075966342
0.114516694497305
0.113333386515925
0.11330943988278
0.112844100556929
0.114405372099109
0.112308154737814
0.115274483910426
0.114203742421801
0.114281807623294
0.12211442992167
0.108540608244945
0.115833349693006
0.109981567144869
0.115426509528188
0.112007758994509
0.115171847956487
0.110781643317937
0.115168945618081
0.109818476633946
0.112379107984452
0.111097405125226
0.114421579085417
0.111034705241247
0.11443183509558
0.110973610801894
0.11346669807299
0.108479305328441
0.114286511536002
0.109056231821971
0.112850453798446
0.113496829758255
0.111565834897009
0.109957243467332
0.11483116608144
0.102259804984151
0.120741758597997
0.104180005935715
0.109581504213658
0.1076980887014
0.111154576290609
0.107978555633231
0.112136396535944
0.107143195099917
0.111191979802944
0.11340979795289
0.104588755734196
0.111955582834846
0.107207806645327
0.108249870815095
0.107187938717708
0.106862212736992
0.110461541698694
0.107966696851143
0.108551981409768
0.106009434081776
0.106904826555174
0.10771144642337
0.108252372996035
0.107602588424087
0.109648012781762
0.10888243211819
0.105800746641145
0.103621693199618
0.105868474689209
0.10573725746998
0.109309497053629
0.116018027316489
0.0997758157638453
0.109286898655167
0.104840728503762
0.109954571444178
0.105759177754838
0.10691169120724
0.108188586788804
0.106207660008287
0.105285932680272
0.106452790377271
0.104014594256328
0.107685345964994
0.105514578791397
0.106036792978996
0.107948965249109
0.104252466799825
0.107450323988191
0.10279725512555
0.110068363375435
0.10496351649461
0.114099683108705
0.111593370639446
0.106527493758079
0.110274775134936
0.105101472749682
0.106743653298369
0.104332283553029
0.104661631556362
0.102244576645392
0.110241558479068
0.100437692039067
0.105989942028015
0.103314986215177
0.107470899523509
0.103854314456658
0.107459365836407
0.104913226981041
0.106987299210228
0.100740946735612
0.10999308261564
0.100721040055893
0.107882535164097
0.0988451026641826
0.112176128923959
0.098715904672024
0.111722675197379
0.0993271171633493
0.116060337337416
0.112667915601246
0.0984273901641361
0.112704244288735
0.101576918576667
0.108820917242578
0.101293855897003
0.106724859938322
0.106741369359942
0.106066593343319
0.105329950174012
0.107799577047764
0.101358100993672
0.106928133817581
0.103578979856296
0.106617215896481
0.1139134526827
0.105103083411782
0.107785415569401
0.109071889700588
0.0997274098973124
0.120671575648132
0.0983712287644869
0.109794837385117
0.103475881625762
0.104802765515412
0.107571946174836
0.10947952004025
0.105157379307621
0.110840989084331
0.108982343549075
0.105873927298443
0.106948480879847
0.105964748462843
0.109293514174346
0.106376062494583
0.108501744319704
0.110628478677494
0.104241655868416
0.110756719774328
0.110327143570815
0.107983830693475
0.109290148776029
0.10886423099201
0.110400411063467
0.109547574324512
0.11595140812794
0.109964897166346
0.113491006695266
0.111814659979913
0.107907160859897
0.11423099570659
0.111793094372356
0.115423253688491
0.112806269245558
0.105677302415278
0.131254882470734
0.101951075624948
0.128015188258596
0.106492098176326
0.11877963934439
0.10585384299557
0.118890490107603
0.103015363004168
0.12426887928709
0.109373226504003
0.115525225203625
0.114586844365397
0.113649596006845
0.118921470734593
0.113068777034626
0.115304571395171
0.115072339129256
0.11504508109583
0.115225224190965
0.123192138497693
0.107911991847202
0.138475954876075
0.115035651689061
0.115938036427771
0.122242370886943
0.11240692033098
0.137612857079846
0.115125673326951
0.122046174771477
0.120420682850375
0.118731694581425
0.124879029922495
0.115987282560486
0.13679907653158
0.124687620004218
0.118682749971997
0.129967152441003
0.120106851203437
0.135295021823881
0.125550613018903
0.125167816511945
0.125778226564063
0.132759366021942
0.126169936416087
0.13806788304436
0.142177665243487
0.122378136790753
0.155180935900626
0.128057726328599
0.146517494351344
0.129983019735272
0.143214937778102
0.136285586785812
0.149281090165895
0.137126858018935
0.14960481211585
0.136632416190323
0.164800543361085
0.139389897062821
0.156115802004074
0.147864653216006
0.152455276616406
0.157608128858254
0.181884209095298
0.15663810229057
0.16403924337819
0.153414375694365
0.174913044458891
0.163749697036679
0.16994931357732
0.16931250150812
0.169105980813997
0.171734274697559
0.172817511221708
0.177454649284565
0.178884578647669
0.174817343039324
0.186726901612961
0.176928630321141
0.206118604127016
0.188327455921501
0.206763047499013
0.185358973667357
0.204369518501623
0.191842439578983
0.195362192121704
0.197317680366806
0.198327730957147
0.204676159307319
0.202813992409406
0.20660352428048
0.207667940799661
0.213704665073871
0.224385739922445
0.206261534412087
0.238337006739217
0.205241083411675
0.233565784907864
0.196370781221962
0.296093402768064
0.239125992587603
0.23636695011334
0.251177754280007
0.229003816270861
0.283489616770591
0.253064571558441
0.257161452201175
0.263340635284444
0.26804504016286
0.269863746061798
0.281770526721027
0.279317255779164
0.291201076694376
0.295659043205332
0.297564995326997
0.30889380714911
0.340011906746673
0.324893354922684
0.336645542983955
0.322922955686229
0.346925927674941
0.354811332926536
0.351403401539099
0.354081132168386
0.374833691880417
0.358172152819348
0.424382084869124
0.377103091430192
0.402009176514612
0.393799833306958
0.418827177615212
0.411233518177176
0.424217449307242
0.447945789660385
0.423852123829547
0.45236318192484
0.43989263876977
0.468113282982899
0.458099324003367
0.489561408085282
0.486388495883243
0.481955112574392
0.491907042688254
0.496793952392719
0.508130554719784
0.508808435537124
0.511907145575556
0.51593851245125
0.539044143834687
0.558019485843081
0.582407850541594
0.556148622231707
0.516012319050849
0.549188217369368
0.526868159198775
0.553206633059182
0.526532171996306
0.556392563029375
0.572548776334934
0.539044498961535
0.556099343686358
0.553389879018988
0.551766748419146
0.551572026377449
0.559304096676361
0.551992441762088
0.556073422392892
0.572873501433858
0.527308486972403
0.603793248305624
0.539579972997112
0.557325294077091
0.54321595690231
0.554375615513591
0.539514081626966
0.556246469135964
0.532870073017222
0.56108503163017
0.523790211811609
0.522231937743573
0.520077811989888
0.520160753683643
0.528350358113392
0.499351527843708
0.501117254610902
0.49367712028439
0.482928342900555
0.48789059052582
0.459603790219465
0.525311530767963
0.466786662320917
0.456882756682311
0.455097510305902
0.443726559116004
0.431245967588221
0.435869085331764
0.428509733600164
0.429069524656604
0.415109090079068
0.415691710138259
0.407609458208741
0.407783016507462
0.403143990655246
0.397055911628345
0.39887659910719
0.390293937514765
0.389124831841942
0.383212836865987
0.378430756539329
0.377686513033611
0.376289876179627
0.372275251921947
0.371379625598025
0.369009500822456
0.361147134010559
0.361355087412434
0.360907905900743
0.358924873922625
0.355352259305331
0.344203014301104
0.349962959153653
0.345589398026062
0.346638010601428
0.341946838324118
0.340559561018945
0.336183605113049
0.340435894641033
0.332598157185135
0.334059826828937
0.328942013364402
0.33138051932916
0.332285986581081
0.328864902529233
0.347937307859266
0.314959476000151
0.33596942751349
0.318857358374467
0.321968417125973
0.316915441964959
0.333197552219553
0.324864537302941
0.311315204668999
0.318640740333153
0.31210447284809
0.307742157159895
0.321149866292308
0.304365938465971
0.309830294459666
0.31228430024135
0.300316448834943
0.368654751622965
0.302664036719691
0.358247262206109
0.305840737510375
0.308444199021951
0.294356931943931
0.322106419078983
0.298564831339636
0.297796101961893
0.306063912895564
0.290350610637922
0.309332910685615
0.290462766702324
0.298955287272068
0.29575393038421
0.296811206375028
0.303721984871258
0.297474900549251
0.292207294262249
0.307850496458187
0.289908145227318
0.297797354033718
0.30781820357281
0.293834525160887
0.286505658314842
0.279772440081672
0.286004340495758
0.277378531094621
0.2888388523431
0.292370455022875
0.273919315512302
0.282708778475081
0.269319845583855
0.286522467939451
0.274064926536258
0.290129538625056
0.274919560194396
0.286993691709275
0.281852269128205
0.26532518121811
0.294757161940214
0.270778486300214
0.299162871951612
0.272252554451513
0.279471921641838
0.267417912790598
0.296248074944097
0.279665439595756
0.269205090397194
0.273020866866129
0.271083077656859
0.276278710735538
0.274247328289344
0.264925222934156
0.288699830137484
0.271286061865846
0.28604858838005
0.285326200007148
0.273791506668002
0.272530444740239
0.269924691443076
0.271574104455895
0.278491585988992
0.273714042507334
0.28428812094651
0.259976716523043
0.291579971043967
0.270315248307112
0.298610948100404
0.290934421254754
0.287188811261823
0.290147130778857
0.296898993853975
0.29700895201267
0.320094909271438
0.303997016301048
0.317153203484521
0.299701507763248
0.327244673408376
0.322348225074996
0.326760433648179
0.329469588678592
0.336178413585725
0.333351417925569
0.349676869471667
0.354351469434774
0.362723332485338
0.371400143574144
0.385019015488095
0.373405745483726
0.406797905884689
0.402400946942509
0.404535836367088
0.442951361918985
0.423995903635092
0.460592103082923
0.441467924928763
0.454902672007855
0.465383437460105
0.468398648870517
0.485896290563512
0.485261225521643
0.505514798556436
0.506109514301992
0.513163636384682
0.528688308800044
0.52483181275821
0.532576253056173
0.540737584373175
0.579436790368005
0.52879436226994
0.588325600223346
0.567711511618257
0.569910932300236
0.556751778490316
0.558242444092604
0.580305812782655
0.572662703115142
0.578034571582085
0.57233937751446
0.592866576875705
0.589343799270443
0.585627799691654
0.589269808881328
0.581000422798407
0.58267573783816
0.592643893212001
0.595340939522198
0.599625941097027
0.601573601858549
0.611116486148299
0.611749345245298
0.631757951863494
0.632463180043417
0.61684294608289
0.630045464342632
0.625774859531398
0.633367880952985
0.633310946010961
0.643378677618807
0.649949239111534
0.649798754252366
0.658199320795595
0.657288339679883
0.653464929627309
0.662757995829239
0.669382760995006
0.674841046750942
0.660592970437689
0.680316045404406
0.656776528980933
0.70762497340737
0.672163399449046
0.686518809484206
0.68149443355434
0.67908023171154
0.684206732450831
0.689485951331955
0.689372857550665
0.690709374181544
0.692767898041522
0.684641771539703
0.690982514739125
0.683495721256002
0.681449227959468
0.685309679213843
0.691856464675111
0.675267261189242
0.665505262920587
0.668485910786314
0.665553687748991
0.669743880045205
0.668475962141848
0.667761239915134
0.663459639049276
0.660399970580262
0.663317935057995
0.661656834267368
0.660089058039004
0.656777190779094
0.65208340861715
0.658639427382438
0.65563711841823
0.661350287946341
0.65252707855067
0.672766607388903
0.667937915263903
0.673336364233171
0.683738484554483
0.677608682956862
0.686722816635363
0.686566562479099
0.699342640255439
0.695709652028997
0.710607223619374
0.701288284323531
0.711066546533212
0.713599830103797
0.725012220713277
0.727044094934893
0.748827987879285
0.733416870859666
0.732714406490543
0.736793056074402
0.744560070018349
0.745363401144505
0.742814586852244
0.736737665304722
0.737994935309099
0.735375851413573
0.739952948106019
0.748121328141574
0.737283999608944
0.719907585310185
0.734474150790141
0.728409604212591
0.729795356621748
0.717747558324186
0.727440048825403
0.724854024603713
0.72401263946886
0.719507820403257
0.715220047675998
0.718357362178046
0.711180211920601
0.709243312617238
0.714796173368769
0.704656633221944
0.707675734523639
0.705139329747917
0.708027059243611
0.701857045300701
0.703639774530871
0.699818764485581
0.703029264408802
0.702253712367946
0.704771561461954
0.703001417227193
0.710008311406363
0.703480923450325
0.698974309495535
0.695672770081537
0.701448899301675
0.693497567624273
0.694384577463842
0.692539747823154
0.688948174114465
0.686790492645196
0.694097061347035
0.692635093551699
0.689815022481594
0.679117951435355
0.678429763699953
0.672606226903352
0.674092393150644
0.666618327024724
0.662129570833916
0.663265626678278
0.661974055115776
0.658989847282518
0.658842682565963
0.650844620908929
0.659160523606357
0.650160729436108
0.645553724298545
0.64864081501611
0.644780199579057
0.643973670835233
0.63820005958654
0.638153786429423
0.644430545250036
0.633808152209792
0.635853062171489
0.645131965665454
0.631603069201945
0.637197499610764
0.623782095324151
0.625455570999201
0.625452120571739
0.62221425993036
0.616586657603361
0.608344471378454
0.615068900475398
0.613211650574534
0.600778021153561
0.595537854919462
0.585972402367119
0.587454790415371
0.585003193505457
0.584288304823981
0.5726700244035
0.570457901052418
0.570293336334949
0.571610852430777
0.566140740475524
0.563585304537722
0.558893093082902
0.561024390605796
0.566106139348426
0.553800579571737
0.560213375443358
0.555422656857435
0.554625021001885
0.552534135461928
0.556234112439106
0.562926135374146
0.560140396802346
0.561492749584584
0.568360349224674
0.558863093726297
0.56001313190361
0.566418451249878
0.571418199696695
0.567099819597235
0.575136073542004
0.573971987195262
0.573851529813416
0.575968686496448
0.581899198569925
0.579289231030939
0.583171668261002
0.574961703116483
0.586942658331702
0.587799021411371
0.584445826642809
0.590534068298105
0.58651833597504
0.586015213521923
0.584157859497415
0.58691317303599
0.583531885125896
0.589673909871664
0.587256782395395
0.584212674506035
0.581420084650065
0.583551637676945
0.576857141984847
0.585624919520333
0.582919364822445
0.58202056028888
0.580141744440539
0.575357922021152
0.574774258048579
0.579920578380285
0.577872029537301
0.5703945953792
0.568462076573393
0.570688479934692
0.575613012142331
0.570075028816452
0.564568905992585
0.565142549854571
0.56430927424572
0.560461560949516
0.557455264913224
0.557614921945228
0.553829463108921
0.549687052707699
0.546766002793839
0.542623104844462
0.538369317218847
0.533172956878447
0.533332549659287
0.528553209113429
0.520819769927974
0.519090091626322
0.516736663596054
0.511722278722139
0.51311601264887
0.508431525509089
0.506159059954245
0.505976304006142
0.506775385802653
0.500789174780109
0.501409950864718
0.500038549978698
0.50225211859648
0.500501153667015
0.496866018395497
0.499986311887664
0.499628279866033
0.49991167981733
0.502059524247224
0.500398784852708
0.495858008697497
0.499576331612137
0.49551303771142
0.489332213108966
0.486990137886227
0.480900156238968
0.478123759539962
0.473284448065646
0.46670694888528
0.460015643754887
0.454535438306942
0.447114207375756
0.441396893390785
0.429190009041726
0.427852654986323
0.422801172578384
0.420086587736272
0.41310615809882
0.41681978535268
0.414511069987799
0.418148485945924
0.418052485381546
0.420587437489852
0.426065867551707
0.432936685672314
0.442160717754823
0.446891240766377
0.461463480887487
0.471052043913723
0.485329706282859
0.500729732909738
0.514547562832838
0.533953843350925
0.554671839055318
0.571552616451313
0.591263944434635
0.618270133879393
0.647105154138803
0.665546108714791
0.69263375385947
0.727918859242718
0.759493656505916
0.788288251731702
0.821474448474133
0.854473095244768
0.884433178466608
0.922494728922621
0.944391868648896
0.975239356766407
1.00325270083754
1.02527320380089
1.04835462611118
1.08707022920262
1.10486470846657
1.11598565341747
1.13419561310339
1.15323527416073
1.14311637594175
1.15384166781961
1.14542237417877
1.13375321084855
1.13414826977473
1.12996232790311
1.10721063477084
1.1166883489891
1.09352043712774
1.07788526158337
1.08646788719752
1.06059143200604
1.06242505989877
1.05010537784008
1.04043774105229
1.03499379787531
1.0363811960737
1.03274281884881
1.03054449772794
1.02238207781895
1.03500232130413
1.03682280971391
1.04872123081646
1.04114648238335
1.05168639991785
1.06508519555456
1.08627700703521
1.08293799677911
1.07953742633616
1.10626076061877
1.10811748902878
1.11979793596789
1.14123736708367
1.14667856310223
1.14455390050042
1.15452272789711
1.1729391790284
1.15808111252758
1.1786123421497
1.17808880746722
1.20383586672186
1.193143549062
1.19187959785478
1.21217611048259
1.19528942412515
1.20993837822559
1.22382958671841
1.23058227984306
1.23532855053775
1.23573055027797
1.221008166915
1.24190805452904
1.2443973369075
1.27712635995506
1.26908034506443
1.26996890615162
1.25843078434265
1.25811503652766
1.27421860514519
1.25876590876926
1.26770335877653
1.27269073217939
1.30782160405529
1.32105119723683
1.36074530484656
1.37731269151267
1.3909998951181
1.40220488044164
1.45122446033355
1.47222856954568
1.5689747195626
1.59423555513236
1.61998549145019
1.62329219501875
1.66569589748542
1.62595580765145
1.80175674581235
1.79133262045865
1.86194737591244
1.74427610484182
1.86265130443546
1.77921936345843
1.76961343474043
1.76459157569381
1.84104449427225
1.71524029979701
1.74286278351727
1.71297500600049
1.72040587383475
1.74208693413164
1.78379552234108
1.67299478559271
1.73177444402955
1.68970591842964
1.76035591861673
1.68851795007651
1.74505796849755
1.74960251332924
1.82693548320351
1.82030059641486
1.82363278118773
1.72038031770847
1.8266411176004
1.88577693073673
1.94880957277907
1.8812049897609
1.90131322368108
1.93703947404087
2.09875021532687
1.95147252557608
2.02386608520165
1.94397786981233
2.13365351987406
2.08630909645387
2.01120544084244
2.16115725859272
2.17700666137427
2.16788690887928
2.24886631484214
2.26056897836733
2.26450845444801
2.33485209287423
2.27722236762143
2.32454968208619
2.29403526910173
2.10888052442145
2.60979897002257
2.26806631771691
2.46209844869318
2.29965505822615
2.26141927831927
2.62118600206699
2.33818622460307
2.17940025100602
5
5
3.03554018542396
2.3191271906805
2.68376710919484
2.42534115712935
5
2.26119531891199
3.73196906661973
2.10091287766186
2.71794474250372
2.57261744342354
2.62050656343266
2.38228880526971
2.64922925979006
2.49723212629423
2.13894376978021
2.16179924356599
5
2.27827350364528
2.95661614753616
2.05142999729555
2.20943258359201
2.41584988971122
2.89823955578664
2.15102886191317
2.18132228330853
2.16384878157891
2.2500884493793
2.09291691735674
5
2.00772142903992
2.22883631014325
2.12186556592231
2.12367122526783
1.91351854511214
2.36200465328479
2.04018749984107
2.08062227754903
1.86020185313411
1.9395966869499
1.80925014889731
1.86976762091756
1.76299297822454
1.80122891695158
1.68620640567405
1.70155793582623
1.60350847722745
1.64151492513071
1.53668936492361
1.52348053411012
1.4464403706105
1.51355219652775
1.40571367312244
1.42216233559466
1.32231528013225
1.28181445473252
1.23823332706043
1.24912323302596
1.207217263587
1.18594772703373
1.11665649564874
1.09874889821524
1.04763881057991
1.05216322327096
0.985574060472045
0.986742300465042
0.947720664716741
0.949332734493264
0.904466979340143
0.912967719491
0.879828104784003
0.883499489807579
0.854822287854387
0.838544751961578
0.838670154442355
0.828841057844718
0.811901923485428
0.822985294998388
0.803708616002946
0.809786378450397
0.805754977846353
0.811882287226181
0.820601015391881
0.81974187428881
0.810421967339043
0.841026063237832
0.8358769364215
0.86137589157511
0.858969857809253
0.875828669280137
0.879808970667788
0.867263360003557
0.86142417809431
0.899774802175519
0.886257315787573
0.917076689508502
0.891308455828155
0.890117109030215
0.887739653058104
0.906281137872343
0.904639298795078
0.899363806541467
0.906710297286887
0.916635785086735
0.892848475291953
0.925900536118902
0.908315844644972
0.909358955468773
0.897136683351498
0.898594198995517
0.899411178383924
0.902900831240464
0.88808570819369
0.890678180615795
0.863685282754009
0.87491898441319
0.859814997730247
0.866328583693834
0.857167941968812
0.843076590057214
0.822279880548515
0.83489470860611
0.828009501672663
0.828259298888998
0.833743444847727
0.825230194924717
0.821997453790846
0.827151608000471
0.810523859139616
0.825946071127512
0.811017232913982
0.843226496035359
0.831380851175816
0.855059136901994
0.863517629251886
0.874348610194147
0.860850418361918
0.869628568941898
0.877516826172972
0.886311268039133
0.872077135698377
0.882701237669818
0.863724273660201
0.857504593939861
0.844728336612784
0.830991750584625
0.825199958877864
0.81779594670858
0.780617668497001
0.806130418779654
0.763492387293847
0.777612886817777
0.764170507133423
0.759419240814318
0.776872399481058
0.782819692970904
0.773087742188681
0.789479995990505
0.773046525150137
0.803004876389906
0.798912970915535
0.802169778026263
0.783434303989087
0.789936083633804
0.791674926506236
0.805395077213579
0.809547305258067
0.815979922948561
0.787449767368687
0.833383067844722
0.812846405337227
0.824318631173179
0.813483147203253
0.830882510731214
0.813886815522696
0.818930725466236
0.814109352546866
0.862641778194376
0.847209048411942
0.836427370606325
0.827030879261551
0.849999389739317
0.813715617858104
0.839596789413841
0.823246356248248
0.837820140954533
0.819792071148532
0.828766122352423
0.843171115108069
0.842734866858588
0.821649820144271
0.836581473423627
0.8091617504694
0.854307275379989
0.807365854743748
0.822892922583555
0.802990778257169
0.83971553763388
0.794479839295167
0.824544403369195
0.805915545594782
0.793864218999828
0.781865823119615
0.78759578881205
0.726320293271946
0.762033007400978
0.785189743019732
0.761194993720139
0.753768160327658
0.75859405384019
0.749865720965285
0.773002219693253
0.741510313143038
0.752918892856328
0.749742820443796
0.793137553138802
0.756298975814689
0.753088750913135
0.763222620468665
0.730885621623044
0.735121147745782
0.767085616492783
0.749677193815909
0.786065105553572
0.726169069874032
0.771512704135394
0.761029372112007
0.781526020137097
0.760064728255538
0.767445804048587
0.77511326358458
0.809181535622118
0.748630809762231
0.791220764479928
0.785412997851572
0.840561938294446
0.814932303170314
0.873434311640565
0.835929271745178
0.840046950231082
0.817719201935537
0.887743034874695
0.837885514338821
0.848751423079234
0.883368109067205
0.946323222867861
0.886953337988481
0.920536931914682
0.93926823176473
0.988850870143698
0.934062773315222
1.00215415554991
0.930672711952679
1.01745066906421
0.953914040907265
1.09755507125397
1.01145183326943
1.02141050151362
0.971093647472718
1.03018991064384
1.00186242796205
1.05941377415824
0.953313691747486
1.0732510674303
1.0587633254782
1.0598363614657
1.00176217083998
1.17917495472327
1.06966209085596
1.17932115039078
1.06724618189148
1.06238500457321
1.07463873172449
1.28059343344554
1.1496975573662
1.08044611158226
1.07752775631765
1.22615006695742
1.05536256668829
1.21652084620512
1.13319883625402
1.20129081924652
1.11580676764039
1.23491266935504
1.17039884561862
1.20973134538795
1.05048601136601
1.13115079588881
1.11967043112955
1.11399282615559
1.01942435470821
1.28341651364024
1.03328250655635
0.954908085011799
1.00694947086409
1.00433936700875
1.06966855026535
1.16056543154125
1.00651236467957
1.18335463039792
1.14116123050274
1.20557681934411
1.06121284618735
1.21884883013129
1.05952775279621
1.07875015841699
1.0587837815032
1.18239945670488
1.00030009620798
1.14048381151862
1.00440747327698
1.11779125028337
1.08406580203341
1.11357134224949
1.04292647144621
1.15164725027141
0.921292079692953
1.49675593807284
1.1724254243055
1.23381947505348
1.10474924723298
1.28097787018303
1.17301719448043
1.18780465596951
1.09647573356878
1.18890819253973
1.14867259427413
1.16071890265702
1.07433360349849
1.17823891438526
1.09457229038248
1.2339054610009
1.29337287958094
1.15940810853627
1.11704020580617
1.47366678059332
1.49051894842818
1.56018965370965
1.14768807326492
1.32004346769525
1.30905393952731
1.51835917255469
1.59530332763036
1.17881492727358
1.33074764252777
1.41223560213018
1.16009669766987
1.22544211043603
1.12451799859321
1.58742087584121
1.24575129238125
1.48192343272643
1.41587018005846
1.1217908224896
1.02199557935341
5
1.26096043896709
1.41275245419614
1.15599675358325
2.2479324599683
1.3412758745746
1.76902498811473
1.25867808157466
1.48015334513586
1.57578693711686
1.2156581402607
1.00412632474501
1.22338624603628
1.23793672836099
5
1.19160994946158
1.46034663782964
1.61297558364651
5
1.15116271406164
2.60702949067046
0.92566100348103
1.35719159937436
5
3.06259477634865
5
5
5
5
0.802844492892658
1.20559101420571
2.53079802297962
1.46849883263525
5
5
1.47936620822248
1.09149492130261
1.05080455354637
5
0.626246584336115
0.914214088275692
5
1.05875133096426
0.724011061896236
0.409974116061826
0.620053798710736
