3596
4000.36533379555
650.420452594757
1
2
2
0.0482942335351959
0.0395485845324981
0.0513470475544942
0.0319767882151857
0.0519462657021901
0.0378817712307295
0.0459217860689007
0.0416483247074083
0.0515755518908085
0.026577040135718
0.0449932775102872
0.0433804359561723
0.0539265485889088
0.0331849445580558
0.0436591173240672
0.0369437781153212
0.0455293984011168
0.0321537869233776
0.0512639049738107
0.0405068674940761
0.0546348540654194
0.0256878289149275
0.0510332962343399
0.0327035067027991
0.0459777826339422
0.0394435707270248
0.0489525457772662
0.0375490408909614
0.049818987190386
0.0399032378113786
0.0534841247010132
0.0323393046797417
0.0455995058083657
0.040476035837654
0.0478332016793041
0.0310620743356174
0.0474490068914569
0.0409510973689837
0.0596536355878802
0.0377119539333518
0.056649433503564
0.0380386350801968
0.047769397586355
0.0341136108519348
0.0420469628638624
0.0360306024098302
0.047577025237997
0.0325540637782094
0.0446496486774363
0.0370768848420808
0.0445055413846564
0.0319024963001005
0.0454223992119597
0.040533292326352
0.0397616112530098
0.036031262360312
0.0433963636613019
0.0339960847834512
0.0442759562769125
0.0349664984124176
0.0358404933602712
0.0402609408149297
0.0455839047026796
0.0407899417659007
0.0439948643457577
0.0336312809926327
0.0444223743688808
0.0392128355270247
0.0440568651181367
0.0473594795888378
0.0545475674489264
0.0350103441842091
0.054696044993191
0.0303543129647576
0.0506098939345149
0.0288427024970722
0.0473778385501607
0.0325561517090244
0.041081479726265
0.0246473116961796
0.0584322586901795
0.0263551244703016
0.041433158643809
0.0345699079636912
0.0363323047235968
0.0327978385851572
0.0482479515882194
0.0192171789776619
0.0564837881924699
0.0308881768447158
0.0444386331892573
0.034381565350036
0.0467955774983281
0.0316130575165857
0.0408299920135049
0.0289718612537898
0.0407350562406686
0.0290959824550516
0.0547853794546735
0.0274854172278076
0.059615436559567
0.022043516635993
0.0742770790910781
0.0271070091985393
0.0339732358150689
0.0470424700719191
0.0232798003590861
0.0532512658622051
0.0398074231487488
0.0331123376921832
0.0370224498952624
0.023943007795842
0.0323964796718683
0.031619020718672
0.0482897557526773
0.0299511219675155
0.0539237956479852
0.024508721730236
0.0358503101326552
0.0242514800324596
0.0553533457365557
0.0164980763535058
0.0648347870389762
0.0227319931745621
0.0456708221364273
0.030718012095253
0.0487149029429814
0.0211915867109323
0.0485714169670718
0.0239068944119082
0.0485534163794616
0.022228847789531
0.0488360701432201
0.0178630961044557
0.0700182050090384
0.0317736630069666
0.0379394016669546
0.0300006619344139
0.0261657902095179
0.0304518981214284
0.0380903390341443
0.0238551458568373
0.0392308325886478
0.0275121583606399
0.0664617797568012
0.0189355444231278
0.043939575443395
0.039356870460597
0.0428958023823527
0.0203375110073878
0.0431817454005274
0.0261956965170935
0.0361494067158188
0.0321509979510906
0.0561207442482399
-0.00413995861203804
0.0868550473925819
0.00369725965539138
0.0580438983033594
0.0222884142287615
0.0373147495547354
0.0299591687315954
0.0328619652924406
0.0314182733342563
0.0344658632381256
0.0374779674617559
0.0358342751019456
0.0416514175639726
0.0420743291747531
0.0360222974059997
0.0404879602318
0.0333321320924241
0.0412275556488278
0.0103825296595414
0.043896263977791
0.0111163502959047
0.0528402510051261
0.0213367458237597
0.0483695519264099
0.0184691451644755
0.0419771863552607
0.0302390333202055
0.0404609441805163
0.0266482930366243
0.0410042062150612
0.0181484624107941
0.0439797076204725
0.0205895253718707
0.0447821462902614
0.025853037580727
0.0567830112343236
0.0257707251656763
0.0486868591722264
0.0153997325604723
0.0401085211099297
0.0320330022962353
0.0354004638597682
0.0389748410161127
0.0372418513355595
0.0303631418487001
0.0354050061998675
0.0269175243160337
0.0381938232516713
0.0253803730180616
0.0449975952505006
0.0241477560513289
0.0385588048369965
0.0354982817425913
0.0388350424495331
0.027254134063184
0.0425869335546497
0.0328056785093163
0.0280389254413361
0.0441494464570279
0.0325761769637726
0.0359870041104297
0.031079630123376
0.0337939978197058
0.0447592534674818
0.0318685247435678
0.0359270197592223
0.0255368270351048
0.0411084440841736
0.030592602908459
0.036091755971761
0.0283994601166419
0.0366655516538121
0.0305330666668338
0.0345541183031155
0.0337824951713659
0.039842216188602
0.0351686949705089
0.041979539214681
0.0288199326592134
0.0455687088015509
0.0267085333186647
0.0471327331758345
0.0272631679994389
0.0386341297370513
0.0277993757475338
0.032674397446002
0.0284468922067801
0.043689723497304
0.0262847611915214
0.0389466068435984
0.0367676452054876
0.043598888316791
0.0374078356064242
0.0289449631338515
0.048202738492793
0.0265837744509532
0.0489788558817914
0.0272751819736304
0.0380205360480094
0.0275641219160519
0.0506907793401044
0.0298229832811382
0.0383484806324395
0.0426130582395745
0.0438084496172363
0.0323447743438928
0.0381942484097653
0.0399008217106925
0.0407945066866683
0.0466370098382991
0.0218424607592749
0.0594794679369465
0.0287313084598213
0.0436473948759742
0.0437469811657952
0.0317976503085861
0.0481096730424691
0.0401461050449889
0.0123457020767839
0.0444837404134229
0.0402781387871991
0.0430417716352091
0.0293314831060498
0.0504984262568656
0.0294696098629608
0.0587183699948069
0.038286391319308
0.0696792976504312
0.0471369063003333
0.0324850185967605
0.0560755910720796
0.0278902100980886
0.0463174849816493
0.0260374682836621
0.0402638208828707
0.039341572164741
0.0499936194137736
0.0341047071205386
0.0540365467974743
0.0323152941422689
0.0481785298474984
0.0421657150706779
0.0354930509590428
0.0362104622844603
0.0361600177235804
0.0504346455230763
0.0458748310624526
0.0398598451471731
0.0408710362817223
0.0471544489825139
0.0329938633340345
0.0569540688575647
0.0435487809511006
0.0407925394722997
0.0534013573995475
0.0438431697937381
0.0266841047824409
0.0447465403037108
0.045614657512901
0.0403946212973452
0.0445379943822841
0.0511478994302393
0.0400343213071937
0.0531523424825292
0.0344883760402667
0.0463546760707235
0.0399866943930614
0.0569337453832881
0.0430445712604014
0.0506350747744521
0.0477882835276945
0.053607498848299
0.0458816090393245
0.0462707623199266
0.0588548298633099
0.0496546319336863
0.0485344151948791
0.0747723188221204
0.0373565031839797
0.062848550527876
0.0423081436548016
0.0616974106313901
0.0567395381205797
0.056323277761195
0.0558756392513374
0.0551135198585298
0.057113775677033
0.0632664144145644
0.0527157399358452
0.0607263086867918
0.0643558339345201
0.0727173865804767
0.0704804860009702
0.0597133714779617
0.0690743969202153
0.0636380996632783
0.0824971032374043
0.0470312780965902
0.0889530605414785
0.0649350430781788
0.0661596354955458
0.0764447478342453
0.0624598963326485
0.0792972219342918
0.073577279412547
0.082956968509665
0.0718686666243945
0.0886803935535197
0.0776067632945989
0.0911905446552257
0.0781582700191745
0.0927616225429496
0.0860483947777941
0.0950235520524835
0.0945471357647325
0.101806002781104
0.0864598150915199
0.107017926676205
0.0941101109542457
0.128763218536718
0.0826936376019615
0.126358652430014
0.110718319866946
0.108746760006722
0.105161542561386
0.10341031902367
0.113997948800746
0.116521506806008
0.116005743636709
0.118053932906747
0.121831481243248
0.121511720250707
0.128638153780013
0.122111717509089
0.126812405710374
0.128579091832191
0.149913754300238
0.138479943160329
0.145825939698604
0.129571887550282
0.14828529587749
0.137147598840626
0.179772923980653
0.134698903785639
0.150544430892669
0.153230477924952
0.158575894503343
0.154548518582732
0.16392957340117
0.174533357989816
0.178595327951484
0.190295511019767
0.173633108396565
0.194785586019348
0.184109549023299
0.176602582849913
0.193974242352981
0.180524211014161
0.199608710961779
0.205511547640502
0.19309966405715
0.189762578364122
0.215759911580331
0.190945015688353
0.214651669042475
0.211068723090012
0.199614033601859
0.22095791459918
0.202997575817056
0.218851863825172
0.222304594796981
0.234023438854398
0.224578276034075
0.234949851729065
0.239077201629135
0.240008818281818
0.247308772113617
0.264662849007036
0.247172227727583
0.247667571494812
0.238826984567754
0.246601964401001
0.268412951166556
0.254079566945452
0.27713009438416
0.259322085198256
0.295251999871784
0.296701157007913
0.274258005748417
0.27570498781524
0.284574037323112
0.304213835090893
0.284426537393743
0.305071343326794
0.302823873533395
0.330563130281965
0.318226555597475
0.31840764949965
0.317557330078482
0.32655845452322
0.330595437094665
0.319889664138861
0.326943291355911
0.332480447154705
0.35837705078736
0.355455718031507
0.364638109262727
0.341575937525106
0.378462623320476
0.373949976916405
0.341230806253364
0.358416740554329
0.375901246748625
0.363078937542564
0.363847306970065
0.377601368357797
0.375886156621439
0.396173944978091
0.389728021675053
0.393743777336217
0.396810278778155
0.399402096586826
0.427965343196235
0.422139150217589
0.420679144366472
0.431324411387975
0.43528463763969
0.43972001081434
0.451653883971047
0.443719760375065
0.477826815495987
0.450203712127927
0.467472184147715
0.468040648732366
0.461916301416684
0.45839125779892
0.495496584656131
0.47190844443012
0.491518787341428
0.479045158422062
0.504316252253924
0.48435911083814
0.506574065562095
0.521037462441785
0.507489777736406
0.492683275007959
0.55098053285234
0.522094210256119
0.556561483712808
0.535874291527741
0.547869363492216
0.536522326671718
0.590989611508407
0.54710769912822
0.544117429417444
0.546602348093514
0.567787640580822
0.587324402649072
0.594583277253854
0.574636937622316
0.592097126671598
0.593210671728531
0.628493601288059
0.6012307404913
0.622686225778219
0.599251342930117
0.635027763092089
0.614986881693264
0.633074584490067
0.640717822680876
0.64768618396183
0.615998387729939
0.649625638886425
0.64347667787582
0.647972041960496
0.621167354963155
0.669531655938864
0.649646700230248
0.664079053753897
0.67621959092903
0.729238435199306
0.667179464099857
0.687391672962641
0.71604922230854
0.721945171959287
0.712415720660432
0.742925936500231
0.700318848534847
0.73432140926366
0.734142447050422
0.761422883076384
0.774092322180642
0.768827620101737
0.734253220997574
0.801069981608009
0.735666192968486
0.781899418086772
0.788867590644362
0.818592703645517
0.762859641668344
0.818262811625306
0.773918573304302
0.834219769680588
0.789076779377955
0.831776673166033
0.78129487157105
0.842876639174241
0.808824713991093
0.840257963987586
0.81328299254211
0.81855810781478
0.819483581435234
0.788300293293602
0.819022145368241
0.863011128720723
0.842404957512834
0.915348323582859
0.864749976264804
0.913304397745782
0.846528464751992
0.938003056221222
0.901504190507703
0.921987278666601
0.912241381513868
0.923803285533999
0.898438468665475
0.961553112971479
0.953452508825807
0.983596553441194
0.919796661441458
0.983132604627256
0.896992100422033
0.971077108513484
0.960193248818276
1.00258496274728
0.910836327209914
0.92199317794901
0.865728718291921
1.00505908432774
0.907485690742775
1.0591450467997
0.988539580225382
1.03489439564306
0.956933082240951
0.976572734049976
0.999178532838962
1.06507634962167
0.984378494078293
1.06139225552737
0.964846682391422
0.986965450272991
1.04189486917002
1.04537257173892
1.00116213953147
0.990110245764499
1.0056923496198
1.09453046039503
1.01800814175686
1.01156021612886
1.02891568001219
1.1180264934487
1.09312023960878
1.09101458434863
1.07981643197806
1.13196384019645
1.04478722719023
1.16628834009981
1.04746763827603
1.19012208939511
1.10088334894323
1.13996018152712
1.07491021835971
1.14801500036661
1.08037762070099
1.26913594460542
1.11658057220432
1.16884036811964
1.12164045596537
1.22320363020384
1.10561274019091
1.1595792383786
1.0755996053677
1.17801456987696
1.11911648505901
1.14751953933294
1.05727074287254
1.1738078430399
1.09797353036881
1.24022437792836
1.11634523339492
1.2397925930781
1.14753845725904
1.38267458293169
1.16289050689267
1.2335068179736
1.16777420237989
1.32573001495755
1.2069704275905
1.18205738457909
1.19083441622501
1.36745908606333
1.16053121843382
1.25784577640246
1.14776408683685
1.2677485636102
1.19546125018571
1.36629992197564
1.24575081984667
1.24227686761964
1.14426507846871
1.24152177566404
1.15972515645077
1.37420505853742
1.32274364809333
1.31918920116077
1.20361051102764
1.24265076787737
1.26003731189508
1.33900299524165
1.16589703105449
1.24466715746505
1.15422121288361
1.2721829386136
1.21096052454075
1.33226732791347
1.3043467892779
1.32634595870386
1.30433631015221
1.46669951100123
1.30592204759359
1.36153317170628
1.27074049105795
1.52184808532094
1.24491683236284
1.45287030260821
1.22302357093005
1.44995699588366
1.31432297842216
1.34755839213687
1.26263819212305
1.33194131793016
1.19048206619445
1.30163933322629
1.23211657408475
1.3675234303458
1.23507452351974
1.3050192688772
1.29114847020751
1.4182519612528
1.33337794204557
1.33575663953915
1.35778812037922
1.3666799326349
1.24120874250619
1.4058221632267
1.30006662677566
1.40962871082366
1.42858281009563
1.42450776633127
1.20773283547194
1.39997432537046
1.324703501604
1.27390184198327
1.30752060676102
1.49124019840171
1.25410960680562
1.2483051136355
1.2859812359371
1.33664730397345
1.40196842217547
1.40208592150521
1.33368281870575
1.36211911805165
1.32432694480048
1.500803712696
1.28231699757806
1.38012762622575
1.31105502088914
1.37248974878326
1.29108971566149
1.30208337957775
1.28992087693868
1.41977016459767
1.30142633447315
1.30045415659801
1.28948719628199
1.42348898142519
1.35674874888911
1.4096957515254
1.34050284880943
1.45581862445247
1.28637974307516
1.42676211349492
1.34291086516264
1.35479294585475
1.27845342107523
1.41909223033963
1.34482511844124
1.36398980109499
1.36057555980085
1.36479843556916
1.30678886195397
1.40431455973861
1.47111795978771
1.31557985303972
1.37404618054209
1.46002216856974
1.23625374805245
1.34177646422665
1.27328031478576
1.4450600153633
1.30017408728787
1.33782980056495
1.34642993786356
1.35126237358139
1.31290169988382
1.37021005636245
1.32192801770713
1.47170782899239
1.29684371282264
1.34306434499078
1.27751022857234
1.35971278752363
1.31761672398656
1.45766245403622
1.32605713247835
1.44962694885698
1.30982910530178
1.45113134018674
1.41912012594747
1.32437309388219
1.29183238616197
1.38306115585687
1.34452174780942
1.34476086483154
1.33938896913741
1.35537331916986
1.37262498073301
1.40279026218381
1.28667007583925
1.40656279890675
1.22027854472818
1.314764378523
1.30225498449262
1.31916215423928
1.26321874022302
1.36661751361827
1.25976461680964
1.34942146182495
1.27282192292883
1.35497264345168
1.41462181659332
1.33273413292546
1.19152948910118
1.28806756315933
1.19293132167485
1.30898273114181
1.25108445287119
1.34264841438834
1.26223055660735
1.32554234516111
1.17536189905535
1.40954220792759
1.23554250158474
1.26203920421512
1.19974471910286
1.31838889954692
1.28445113862373
1.25274365871082
1.3054323881885
1.39394539325657
1.19287360659773
1.38430686398485
1.22757633806247
1.26902510446907
1.21039776491931
1.27983280587762
1.18564104850351
1.29762887038563
1.22508209236432
1.28542946327645
1.20983140299232
1.2327963343781
1.19560105672185
1.3068691006045
1.15962227426843
1.28175555903777
1.19715143705489
1.22790810910056
1.19414974827341
1.22883027377384
1.17164064225908
1.21723864596406
1.14911481879313
1.24116805685162
1.16162927624169
1.2424160183417
1.16718575561606
1.15069825081446
1.13337230662196
1.22468585204413
1.16022993261207
1.16441047565675
1.15515936488582
1.14316472971867
1.17473814378039
1.23837779472049
1.14972534374627
1.14145254280163
1.10750025176039
1.18222668299528
1.07267634291583
1.1672082019772
1.09334955545032
1.14379382436727
1.09576436416035
1.14594826763263
1.07727103089025
1.11631700682897
1.06396198047752
1.11005466620956
1.06129714092104
1.12383639295348
1.0289798354749
1.10060179376357
1.04287826339836
1.06348605465568
1.06197948457402
1.06415105953178
1.05527274771605
1.04686923536037
0.97130891559486
1.04393588310767
1.02707806753177
1.07170494619059
0.992082683269098
1.04833546115041
1.02577649707984
1.02627620724891
0.986960177788461
1.01096135312094
0.968041227259294
1.01327956050152
0.958427710482296
1.02630744444784
0.984276416345053
0.975639688744762
0.973329743484215
1.00913492481395
0.946676785274531
0.983612981129592
0.920119821024061
0.965993861763977
0.944266630974302
0.952469591450419
0.954000816847576
0.962199625482311
0.911611406690456
0.954541411377251
0.918865386954268
0.931811128034106
0.871355326024487
0.930462120738905
0.896484288810061
0.910472099829305
0.885693841514056
0.900766301696832
0.88478137564966
0.909452581563887
0.87800598559746
0.929593379872838
0.854033776519285
0.867990625370912
0.851446333503826
0.866532053295028
0.819786942203745
0.887718996052677
0.836873905831656
0.850065429980454
0.831276765309049
0.853631974860287
0.800797091927062
0.838576242001339
0.799566535394176
0.829979244209496
0.815536019175163
0.819205718569922
0.807055990221321
0.832265717313851
0.77470206734914
0.80409945886784
0.761464872841222
0.803726894366084
0.776016732006549
0.779718451945983
0.769108501351628
0.784668513862783
0.779475004457805
0.785149350644605
0.741849469578011
0.777787403633469
0.74491167241264
0.758650610091754
0.724015479010959
0.752478024978636
0.737370619463409
0.736838862453921
0.742492486063285
0.731253052794993
0.699876582410218
0.737802756575519
0.713307289228353
0.724508312886707
0.703856273210537
0.738476077450235
0.709025831407406
0.719527363827444
0.676685061594114
0.716776924817858
0.687915947431438
0.676925436780125
0.687345278956314
0.693348420234105
0.682360856980544
0.680770731011677
0.651831023273374
0.674041176972481
0.646416862070351
0.667999363153161
0.646748187260195
0.663494974339979
0.655722979192729
0.659263989339074
0.638793035881273
0.647848716520484
0.629663551169834
0.658862580785653
0.632481185327473
0.640859766526833
0.613933127629603
0.633138903817237
0.619937410329451
0.627048533165487
0.590826714752429
0.602479148317425
0.611155438494046
0.623127638906232
0.583355686782437
0.606638842675085
0.595926450529272
0.601365360888933
0.593376178610453
0.604322413241936
0.579969973371504
0.585926192574899
0.577198720299244
0.589664957909644
0.563622783570611
0.583260500915031
0.555073400157455
0.561334166141749
0.55667500295815
0.562516710293645
0.556806197193236
0.556275008412973
0.554352268838834
0.565813224765239
0.552705778199629
0.549198335399592
0.537333692839752
0.546464165160905
0.533402429888293
0.540335651754831
0.535478970376893
0.532926201175556
0.519797097279038
0.533326570356058
0.516664566449435
0.526249793000844
0.508692054083102
0.521469358097038
0.513821405250737
0.520794025031722
0.491329606505156
0.497952289969451
0.50059227696351
0.514575341064832
0.491693837806232
0.503815366746235
0.49563249800619
0.493551440256076
0.482492957661035
0.49454158644084
0.484269630209017
0.484572928547836
0.473353957664479
0.478700593171013
0.471832429487087
0.471796326983269
0.470605254458809
0.475674547595337
0.450797006277168
0.462840661537859
0.458085429772956
0.458976089685612
0.459105496371327
0.468091354435178
0.459815395948115
0.455124518838212
0.451965068898612
0.458309165481111
0.448122684693749
0.457125636380226
0.440960203511298
0.452106031352363
0.443673282959023
0.442595817008527
0.44056666909878
0.453493545262457
0.434405406533318
0.444930738488427
0.440114484329167
0.452938454690279
0.434368658471467
0.441386920995453
0.436566654467658
0.446933668655066
0.42982588505684
0.450226192149923
0.435326386679553
0.443091080965838
0.434799233437846
0.437952869034648
0.432478009966554
0.450527497210656
0.435408949298931
0.441579845981305
0.446684122478436
0.449913956478102
0.444418158515355
0.451818508778838
0.446898830061386
0.45964988987319
0.448603411222918
0.464427349787557
0.452419845373029
0.456558268686374
0.460460994507434
0.466449270857004
0.469152206210061
0.472066731213024
0.464639916095586
0.482201783960656
0.469745305155013
0.471433252439423
0.47009088067764
0.47312546435522
0.470969203135634
0.485249966315645
0.476862688064072
0.48571052569733
0.487214955641549
0.493061075034287
0.494717656056237
0.505162538649412
0.489200850755056
0.497944154420485
0.487698523692137
0.50912956241089
0.513324048902757
0.515198922008251
0.511809433695146
0.511721847585797
0.513799906540415
0.525302928536294
0.51621300484107
0.533732730979894
0.525451146045114
0.546473902149169
0.53110410473615
0.553310196551202
0.546844488386848
0.54925314773575
0.563800268750489
0.560004826763854
0.562311652440766
0.574985432900888
0.562646554610863
0.573049342387656
0.5656021207159
0.576495445292645
0.573186208527897
0.577150213869815
0.578010105076037
0.601396980035595
0.590357820390129
0.576544738645384
0.578154845730305
0.594167669207543
0.583209208565249
0.588879538101646
0.583014376973967
0.589020279947939
0.574146777550301
0.595187057523172
0.582209454188115
0.587301862663493
0.585837767000307
0.587008528715726
0.579516943227334
0.586850073858333
0.572086804458849
0.581099780734062
0.57774369839072
0.577250005273475
0.572756410791758
0.573056974460415
0.565014203290996
0.57526656195599
0.572660597406751
0.583635021221273
0.574668049879951
0.578681300013109
0.578280778802713
0.587454375564148
0.590568654331865
0.582951771394344
0.568908839350435
0.59639181473575
0.573615612147328
0.581431984725166
0.58331281399527
0.597449023078689
0.587796122526681
0.584986248546075
0.579239812913827
0.589866227394602
0.581532030770805
0.582082352057916
0.579798563511954
0.581111982661244
0.578953693960694
0.585909936353613
0.564305794120848
0.58012875022802
0.574881102030383
0.579526664992854
0.574788176192229
0.572770747239728
0.577387327238019
0.587834708682116
0.563612794081138
0.571330096454921
0.566232805822822
0.570446491618689
0.571584465482437
0.563580319529918
0.553543291603034
0.555639140845845
0.552940631234477
0.548718662158682
0.546053257654012
0.550364746144875
0.52971931991548
0.53839962821877
0.5190962318919
0.533521782859333
0.529935067231766
0.529843531763895
0.514639054106962
0.51682838935214
0.507523811768534
0.518372760735235
0.503968544017489
0.506492722726766
0.495874439956451
0.503128675150731
0.487458951043088
0.492536380320545
0.484706329631193
0.479037776385647
0.474653852570238
0.480411731811758
0.467832416430835
0.463040963597294
0.452800115582308
0.465948321823908
0.4580429476968
0.45928761600995
0.453852799780286
0.447375416921907
0.447718667093056
0.454985626743796
0.443388787775509
0.441469485068792
0.443993541501874
0.439614508416381
0.436523969520937
0.439114244658436
0.428130387726812
0.424559123222809
0.414379034001348
0.423100355108441
0.415878390529939
0.417315066821319
0.419477378539451
0.421427588324075
0.411270720801062
0.417524038516628
0.407027109688426
0.408489114366097
0.408247377078953
0.405674318442066
0.402312519666159
0.402724793574892
0.392632772412063
0.404765510585193
0.392696875612978
0.393254225893309
0.388678534493996
0.386990813098471
0.387820366341399
0.392224617766199
0.38737970507213
0.384906203020439
0.377728888422095
0.388086634519693
0.381197241817706
0.382855842299634
0.37561479423872
0.379310933552962
0.378657100142505
0.38002869049859
0.374252002366057
0.378551737071912
0.367723527175029
0.374218708141703
0.37189075405601
0.370116669275462
0.364793576669218
0.370418567418438
0.362001163291861
0.367887277037428
0.364775327887148
0.360672077867464
0.355505595248211
0.359698139345009
0.354116524261908
0.360382178798528
0.352000269704439
0.356258618252785
0.360713581645244
0.35959350715397
0.354227064004094
0.357618459679018
0.352210181322749
0.353338747506661
0.343931797631394
0.350565405079731
0.345961533935543
0.345774035941336
0.345314483289992
0.343390900782374
0.341184500146867
0.348475502067912
0.341767686774447
0.338499151343021
0.340388708963286
0.337967123869863
0.334242481415506
0.337916701636488
0.333682949293831
0.337369612657367
0.333679029927507
0.336344151512062
0.334596061849079
0.336154091168387
0.32982885835032
0.329985627353715
0.332190076547394
0.330644982431592
0.330575566054655
0.335451032651719
0.330564198943073
0.332949318081018
0.327083447036588
0.325886496283767
0.321587882324722
0.328181879619594
0.325405728835344
0.326058797473665
0.320522744428524
0.325581170644958
0.321763078291272
0.320965572002007
0.324248816298163
0.319577922036476
0.320412956252717
0.324854324041549
0.322311318381917
0.320360010750541
0.314400266316606
0.324144579605565
0.321149745181709
0.320369940226371
0.317892741361545
0.31767003410894
0.320104493104193
0.322090479945152
0.312669959215666
0.314638379858836
0.316649874774388
0.317105059369031
0.318387678475608
0.322772318919064
0.319266949287569
0.313026355125477
0.312856475072773
0.312850882168233
0.308910381694094
0.31535839251237
0.313330526030918
0.312137953041637
0.303954354009774
0.307507483122703
0.305576176400367
0.308011707238222
0.304688960181538
0.302832557281827
0.303347822215504
0.308834319388619
0.302978541830296
0.304309704338166
0.30430421564388
0.301967038348378
0.297989113648321
0.305145985725114
0.303847980083176
0.30335039966764
0.296877529473661
0.295387500798821
0.298326926889341
0.298836221220386
0.296629319060518
0.295189039772362
0.295726244664517
0.300279045862557
0.293445236514777
0.296946646277492
0.295487100517919
0.291507120918635
0.292322040774324
0.292216861222904
0.289610738109393
0.292772827163504
0.29067103910053
0.288476722325823
0.28793390980945
0.289547579064511
0.290789758439285
0.286699553600154
0.281492262912447
0.285380400457478
0.283037245609132
0.285044254233388
0.279991683800298
0.280620550834941
0.281564577780487
0.279175245674651
0.276638128366582
0.282017621965189
0.280308687284445
0.281336900985901
0.279345898162824
0.27776324834238
0.270536564911982
0.27391860725292
0.275806412876818
0.269790017625879
0.267226909124818
0.27212191605558
0.270857880154247
0.266347043105595
0.265781908251938
0.268305926566051
0.26436222187796
0.267745430511285
0.263956897750878
0.264894021368287
0.265971194056591
0.264880413272796
0.262201584466607
0.261129927380217
0.258861607088315
0.262735680861918
0.259828113193543
0.256081722683096
0.257244357882499
0.255027178773983
0.251685215833155
0.257021953755049
0.254822013522789
0.253604639839136
0.249500233808125
0.250713845542416
0.245990048999007
0.248195428826466
0.250732964912693
0.249258595934482
0.247341712164412
0.244250696965491
0.241230267098334
0.245656116345802
0.241443919631377
0.241613594553543
0.239577853849486
0.238752933117618
0.238328640568757
0.242220454762622
0.240175723531618
0.239339828913406
0.233915600288763
0.23576969748117
0.237269764753173
0.237241959938828
0.235929449937515
0.231944413066854
0.234640824477288
0.234146934227245
0.231073164352531
0.231388904418336
0.228209706607252
0.227268511048411
0.230067144434588
0.22790344969045
0.225570425599528
0.230362333871783
0.224019320112069
0.225241957580014
0.224514234143624
0.225132348012349
0.222479162215523
0.222272434583191
0.220127877437657
0.220716268512092
0.218972200931589
0.218397593574367
0.216054578332032
0.215243253298451
0.219135056181117
0.219135688189507
0.21607179493077
0.216515321435376
0.216356427322791
0.21539087290554
0.216467707768069
0.217191271212175
0.212082801711547
0.210048530952064
0.21344072865628
0.212848373138767
0.209473999944865
0.209110853138037
0.208674524940138
0.210510286042933
0.208951277486839
0.211724087289456
0.209831336052584
0.208923878928064
0.206999547820737
0.206636800682556
0.206318784208717
0.207501484604898
0.20722201138516
0.205352205554295
0.203297082223199
0.205233651648505
0.205301248571979
0.204712669314661
0.201118280114162
0.203320072591335
0.205220525686079
0.201720321573925
0.203550925427361
0.202015995579616
0.199133244597364
0.20104419869649
0.200748663426557
0.199005308724565
0.201357974367171
0.200179768390674
0.19657323957425
0.196543742028849
0.19620396436138
0.196847428644328
0.198963173386312
0.195840362686582
0.193455531712344
0.19591387607754
0.200969408675737
0.19944323467384
0.198140061011835
0.194314964473621
0.192060442012862
0.192320487444642
0.191973082569132
0.191970016283553
0.197473584953542
0.191846081931612
0.191698820195296
0.188705998974571
0.190636681540464
0.192376428052746
0.192973319596058
0.191049687798494
0.19014345021344
0.186713802193028
0.185848019176822
0.18997461423721
0.187809687548748
0.189282862864951
0.187043616394172
0.187786021220442
0.186442052952284
0.186112663794485
0.182651746675559
0.182750414094859
0.184892360867738
0.182860930084626
0.18371545615009
0.185345504950825
0.187652998023341
0.180393034840894
0.181768560712982
0.18248594094188
0.182371348330687
0.181034454217683
0.181554183658378
0.181097069413091
0.186233149993831
0.185635703081536
0.181847095406302
0.177089958225449
0.179435088329722
0.17904378266626
0.182467660662406
0.176957721675868
0.174988800333638
0.176621686899335
0.179200594570333
0.178214366346579
0.173854977162377
0.176622969630309
0.176702066916271
0.17880208668181
0.17799069535884
0.174146013872728
0.173186120448936
0.170821223745395
0.180390521347136
0.173983055380237
0.177457934635566
0.172445173833674
0.175796542129866
0.1711725353827
0.171670189044254
0.172043520424716
0.168452716219368
0.170285660565706
0.168376273098657
0.168178988402218
0.170006196290452
0.168466253395167
0.169137297893614
0.168081448785696
0.170770038267038
0.166841113109696
0.165117555754443
0.163522719647972
0.163881595441853
0.165117565168724
0.166843386195562
0.163830317284713
0.162543943271301
0.159720604807189
0.162615894806086
0.158620730006826
0.160297425272482
0.15840591277149
0.160138370886099
0.159566745140719
0.159181571133589
0.156815695250758
0.155953480172514
0.156126321936009
0.158656106026407
0.156641423652447
0.156357306147808
0.152617000474423
0.153013955917988
0.153744678326308
0.150609571729423
0.152133703184148
0.153405579335009
0.152089993229446
0.15106670741194
0.151370830330731
0.150728956822499
0.150808671688261
0.150700160847469
0.146356556345478
0.152634576339503
0.146262347499071
0.151973552054205
0.144255433845931
0.146943660669749
0.14695410526633
0.145321284793664
0.144143889627539
0.144466870528654
0.146030561755321
0.145169797482693
0.143285157957608
0.142659862447364
0.139061780459321
0.142201627528222
0.138603706531018
0.142079966180962
0.138118259011256
0.140222829082191
0.136899720670413
0.137318096907682
0.133843625573436
0.137957956347708
0.136830725341997
0.13515052868529
0.135924489679105
0.140046548207115
0.135411891105708
0.139094284083573
0.131702402638162
0.134662599397523
0.133716064397392
0.133683238672838
0.129563284477608
0.132673095578358
0.13239671067076
0.132428010415133
0.127686433778489
0.131622229895199
0.126852802595592
0.129237064221198
0.126824738174589
0.131141995746373
0.130789825234229
0.125760946059376
0.127594264790617
0.128830150818647
0.127349745948948
0.127343855905235
0.125029314523555
0.12637790996058
0.12403455657849
0.128849715130616
0.124839001001757
0.124605782940489
0.123857013192167
0.129068230307879
0.12498065153278
0.124512221910288
0.121921260434289
0.123925438370861
0.118852789276607
0.122957342907591
0.120265423322662
0.124882647907308
0.12035118823774
0.123803854971722
0.120578518814609
0.124421888476648
0.119801344246794
0.122789226203647
0.118106821845481
0.119851501818677
0.118638008615933
0.120582022425604
0.113898583708884
0.118984113428729
0.113856833463601
0.121890583526307
0.110751546903404
0.117253827957199
0.111795982598426
0.12220139445401
0.117931361994388
0.117718702407739
0.109190183336577
0.114997790277839
0.108153996214608
0.120219531963234
0.110932175967742
0.119010118464296
0.112512104184415
0.119898768691591
0.102397276094316
0.117163464059207
0.106392175677845
0.111983219393242
0.106096880554355
0.111991236492705
0.103785475111141
0.111864809747954
0.107879833732531
0.118956161861226
0.100410352086511
0.119483595455831
0.109123476034393
0.116086067184268
0.10059895166236
0.116327115481539
0.10101303544703
0.119473240977029
0.0992871269380065
0.114186035204862
0.0975897453753374
0.116812780029773
0.101342705896549
0.11771688085496
0.104942474191684
0.121110803311468
0.102864687327708
0.125349665424421
0.103462759468913
0.116008547950225
0.0950730078045925
0.113348528746772
0.101609014629129
0.115674694067498
0.104108304388115
0.107080006827175
0.101238067977259
0.107056152389044
0.113308338304635
0.106126816699256
0.114740701593548
0.0969054224762754
0.121121742472629
0.0934724274604789
0.125967278415276
0.0851458654093259
0.128800470190899
0.083896370923012
0.126294347079877
0.0831865449820753
0.125556406710551
0.0857814029646056
0.117465238234397
0.0970484849145132
0.110942985200697
0.0990969264516998
0.107907911655331
0.107585212844241
0.105188715571007
0.104549351947281
0.103659525441348
0.103596282133661
0.107448198616443
0.102041367712629
0.109759897436084
0.100307753984873
0.109189828482654
0.0981217430790941
0.105681595474499
0.101011697960318
0.105296519721444
0.102888038937771
0.106750967139847
0.100199412987972
0.103830436805396
0.104367702595682
0.105573955599133
0.0968461878150225
0.105676875433053
0.101781426367995
0.104070099681641
0.0989946678217996
0.102959078947486
0.10051335994977
0.10239719462058
0.103104310923352
0.105256147015166
0.0997105237133915
0.105364441302951
0.102154321199999
0.103878704321921
0.100773133436002
0.106019848267608
0.1010830702375
0.105425351615757
0.102970084697878
0.102487391893536
0.102568163393728
0.10506275100752
0.0994818428749462
0.102429953500913
0.0995679046164046
0.104008555004573
0.103256001901618
0.103565827141083
0.101930523984968
0.102768285421228
0.100132063768317
0.10237140299883
0.100932100201519
0.103862695680222
0.101337595716149
0.105008049576541
0.100951765541019
0.103971780908396
0.100433855790657
0.105899766961976
0.103878572500641
0.100393663320912
0.101912373395102
0.102605489376368
0.101491576480764
0.104469967394344
0.102168454021159
0.103592678827705
0.104568884520403
0.102793041263563
0.103666215366854
0.100025413786761
0.101444496852366
0.10173156953414
0.102411236431808
0.102228046193373
0.0996398940434074
0.101803264288379
0.100803832287958
0.102111546514567
0.105557715097282
0.10170579829509
0.104296755002092
0.104037508446131
0.101987286130323
0.103410900465625
0.10127202585988
0.102271589147168
0.103538951010927
0.105174225218577
0.100707384132502
0.102464404832692
0.102249896100985
0.104902966775813
0.105248171138921
0.105844507651503
0.104616790977378
0.105237390709504
0.1044409249901
0.1033176054314
0.104401386559824
0.103069667647651
0.10395817309995
0.105151756314911
0.102499540482223
0.103472407405633
0.104174530893017
0.103758201779486
0.104580634638735
0.107505908034819
0.106557275311183
0.105913959150501
0.105076640685425
0.104699852297846
0.103767927082141
0.106823440927279
0.106026848600929
0.106918717107551
0.104898177907309
0.106653709645325
0.106849241720865
0.106944258399732
0.10505518906884
0.106592158416648
0.10628088989318
0.106209199037784
0.106537132748446
0.105117169437344
0.105688028099605
0.107107232094872
0.106389381818523
0.10605988492953
0.105810379160692
0.105082922624696
0.107993536652021
0.108861649032507
0.10767847680084
0.110309831763613
0.106795115234886
0.107211113406457
0.10968421067017
0.106117044621067
0.106831187968892
0.107296829645512
0.108797771863385
0.108093115399279
0.108673506376395
0.105229142393465
0.108135461302213
0.108699229488984
0.110897949512766
0.108601127732096
0.109372706366421
0.108008885974187
0.111583494423232
0.109802429838991
0.112697186345755
0.112706067616817
0.109427912583287
0.111338891071033
0.110028131880177
0.107376928146513
0.110431730100972
0.111418270147606
0.109870688134951
0.113669959555994
0.112693976497376
0.109377548705381
0.109706349899806
0.110449746913137
0.112554863544565
0.107721587101674
0.109227558986612
0.11135934185453
0.109968341708667
0.110474837382728
0.110749760997826
0.109168891741942
0.10974562310236
0.110508823333123
0.108429405258854
0.108456532341447
0.109159956936771
0.109940926976938
0.109285314591601
0.107329577021571
0.106821542510858
0.108179338877901
0.10730919014955
0.107175468759896
0.108871904004573
0.106249675025898
0.108537309939388
0.109897836990758
0.10699485318127
0.10785109717175
0.109178305454238
0.105235350993799
0.10658707052818
0.104799529661347
0.10639737934507
0.106775598334115
0.105387254744711
0.106321235212513
0.106741004906384
0.106987529262689
0.106939696421726
0.104562095575604
0.107484976782706
0.10502823041735
0.107196844932478
0.107864932221887
0.103751127385155
0.105065172974596
0.105611587923971
0.103882792775007
0.104908729771134
0.103770676463867
0.10439328195282
0.103542164004695
0.101845031549223
0.103244755598575
0.102560327646441
0.100906653272921
0.102933715259956
0.102321177851597
0.103566591261977
0.102497073902567
0.10193725852524
0.0995580698049929
0.104180525075606
0.0990303168924285
0.100802148984111
0.104145539736779
0.100420157593175
0.100572777008887
0.102851978219241
0.0994129971583987
0.102121423731773
0.102225291433232
0.101665130689288
0.101477963165028
0.0993952309597404
0.102601090216368
0.101555544856559
0.0998938014025964
0.100877832375814
0.101761005161218
0.102095465753747
0.101192303014297
0.100600306894013
0.100513722609239
0.0993959067634104
0.0989975797065929
0.099424453353673
0.0967423551994416
0.101084002864687
0.09846670771006
0.0989376433321286
0.0991112591544104
0.103848666233798
0.0995675413964891
0.0994415585409821
0.100696390287277
0.098330684920599
0.0995681297898799
0.101231432701499
0.0986091478245202
0.100312138297677
0.0975920614232305
0.099598664101896
0.0972383871955886
0.0969437736418876
0.0971823039703589
0.096976391117865
0.097635195423834
0.0995607435769428
0.0979918921930217
0.0974011811973797
0.0990475101345756
0.0967889392685701
0.0979308978017617
0.0986253944357849
0.0981539850400782
0.0948568686588003
0.0952314864909477
0.098488048648026
0.0957680649620628
0.0970562611459887
0.09454891943843
0.0933403155893238
0.095361915096349
0.0948165841329314
0.0935170487482207
0.0932793626014836
0.0942453743549181
0.0935065455028139
0.0935040553178516
0.0932254478654967
0.0913235551117906
0.0940101536307725
0.0914257618776628
0.0936205248106533
0.0913418882708876
0.0935469313634396
0.0921543104280478
0.0915555070993263
0.0909492978420545
0.0917042761869938
0.0906509450899227
0.0903646496923785
0.0900526106049029
0.0933164931867154
0.0881629933290739
0.0891024035925245
0.0858443264372776
0.0878719074761945
0.0885464947607605
0.0892530747209855
0.0875449971697345
0.0900741467634521
0.0875311443620779
0.0855909543928992
0.0839676577472517
0.0857867011751799
0.0845716082473826
0.0859070099933878
0.0836302576332815
0.0873399448102064
0.084453271142558
0.0837481248310893
0.0836898186754315
0.0847460478844005
0.0803613828107064
0.0853836107474166
0.0818462422930837
0.0863782735347637
0.0823035968565261
0.0843965058939147
0.0831016759295872
0.0827737438079586
0.0822765132344097
0.0833026823369669
0.0839826352795368
0.0815995558281357
0.081699315037726
0.0819975278851495
0.0800435435068129
0.0808442542503352
0.0808334027530482
0.0797882285258215
0.0795949129253375
0.0798666261775205
0.0811286771731804
0.0814354052494563
0.0809388980110173
0.0808738732084341
0.0793001233943221
0.080026296362184
0.0799294370818451
0.0772522237473412
0.0802080222780067
0.0777106815751225
0.078921756282809
0.0787135347203936
0.0793140679562416
0.0779226468829256
0.0797325478710278
0.0785780277252953
0.0777037580458133
0.078455816887462
0.0795341931465192
0.0782023398957831
0.0769925055005986
0.078915928067161
0.076711112038253
0.0798332447012055
0.0798871856104847
0.0789680194104448
0.076884538685643
0.0756686334438205
0.078540396899356
0.0748866873809081
0.0760960439439768
0.074653944070873
0.0753931513449794
0.0755353069823153
0.0772830173599343
0.0777567129112786
0.0757849717702974
0.0752446596644785
0.0772986443347961
0.0840772570030208
0.0705790928779055
0.0807431224513937
0.0719262160980878
0.0735826828990735
0.0723409348938644
0.0764149639149839
0.0748358115907582
0.0758964062169457
0.0715430370168524
0.0751723840491145
0.0718805804800253
0.0755618705510652
0.0742059431290327
0.0741752499902878
0.0735564755924709
0.0751886008481025
0.0696688324308293
0.0740221254408512
0.0721227918420359
0.0774056864064871
0.0749279056092121
0.0765115558765202
0.0691849105179361
0.0758390530427845
0.067534686911691
0.082703366580463
0.0683621723906979
0.07514045486554
0.0718395408209714
0.0732137002426363
0.0723470768446147
0.0725063104699496
0.0729676598131726
0.0745753498186513
0.0784221566889955
0.0687239025826982
0.0739321296391934
0.0693742860917328
0.0726461305246725
0.0713022266199773
0.0731155545567513
0.0724706413203877
0.0702442932351542
0.072662852811239
0.070839948323439
0.0740545803614143
0.0727133556889212
0.0765601904730801
0.0732215300295219
0.0731260961746407
0.0725331143366157
0.073603862518198
0.0704596272904539
0.0691998107468179
0.072969471728542
0.0734132710659535
0.0773472266813185
0.0683529929403907
0.0747329937788742
0.0674593800335913
0.0745096049408088
0.0713679574822724
0.0733262243712272
0.0716119915469886
0.073462052326683
0.0713083052801067
0.0728865481465348
0.0712460380673857
0.0716588718704015
0.070447384791138
0.0713003758129196
0.0738874270670933
0.0700333797590161
0.0723762784130387
0.0697912035034197
0.0747555771400418
0.0696978593151474
0.0766883992800424
0.0750492771146603
0.0707980093926336
0.0751481047997359
0.0716987885633152
0.0732316888616374
0.0701128245904298
0.0718676256323337
0.0698164032402803
0.0747227089654864
0.0691164539266088
0.072233981648405
0.069970432941533
0.0732762693518947
0.0693687274855977
0.0743797497206843
0.0686751014411493
0.0764768873631823
0.0685196777162647
0.0759483662509539
0.069461605305277
0.0763537618682209
0.0688551581895878
0.078081490125996
0.0683120928352333
0.0765082512088777
0.0666819562283807
0.0825858009837078
0.0766010519734925
0.067352881663658
0.0811344999434717
0.069357576201026
0.0761296280968465
0.0712898561121223
0.073383373699682
0.0742584712351301
0.0735226686144606
0.0722332008088703
0.0770183002048047
0.0700004774270306
0.0744425288502815
0.0725757924655929
0.075532590104394
0.0844845300713085
0.0737811954524277
0.0753380397816165
0.0760918181530477
0.0697634347740014
0.0883949348173302
0.0717546263871332
0.0798350684610615
0.0726857801379766
0.0748778376743182
0.0768442286761426
0.0770886769977055
0.0755208012952911
0.0800287502925766
0.0785364898810726
0.0738439692367327
0.0791453937541282
0.0751510189417257
0.077470507417512
0.0775133386100707
0.0792471939494087
0.0813401927042261
0.0761875830364591
0.0808146653291983
0.0808069819398951
0.078539751657969
0.0788358739580241
0.0788464866392055
0.0815852901477135
0.0787726546140414
0.0851009252608936
0.0808397432026186
0.0827876258263262
0.0840235348790029
0.0797751602031781
0.0816726417364069
0.0790790968241449
0.0819377218530425
0.0830407306406628
0.0771854545777903
0.101689410370473
0.074471412455106
0.0955474030166105
0.0747505727642047
0.0894136456037018
0.0779098764619831
0.0911773108029401
0.0774492200218346
0.0901267702033473
0.0814750875696557
0.0872467752955659
0.0848876576655461
0.0849570490308166
0.0884777368744413
0.0857151323940633
0.0896325315348791
0.0858456017138363
0.0877652058453475
0.087030994081652
0.0935387270409088
0.0804604546986179
0.105153708920613
0.0863103330730887
0.0853097117081057
0.0955871874921409
0.0865891809294632
0.105480151180032
0.088605754883263
0.0910284103765215
0.0942299313564876
0.0925262122549089
0.0954583597536998
0.085851760372004
0.103442518612209
0.0976248506410852
0.0934817871844832
0.099602467720505
0.0924682389369368
0.103796184154589
0.0979866666358082
0.0967441612260657
0.0947054778405685
0.102788873494176
0.0969526835161335
0.100501571047709
0.11145994767255
0.0975408206625648
0.125186910914883
0.0997522792329073
0.116264926309092
0.102074272795033
0.112089782459611
0.105115213858061
0.119428852579908
0.104590354349148
0.115923586303314
0.105337148116588
0.127463323546553
0.105992946841095
0.123994776993173
0.117416375512144
0.118949242413436
0.126630385039884
0.139787970483054
0.118937350541867
0.133570437601789
0.120921162718131
0.136639306173611
0.128163061966799
0.132702275110401
0.13264069061872
0.134663864024359
0.139246891411416
0.136623418590149
0.138009777458898
0.14040606166342
0.134791133154394
0.146301056892276
0.141221118232989
0.163037611345173
0.145790425517525
0.168308841564359
0.146136335312888
0.16398300507107
0.15559091617477
0.15590356349965
0.156064789257197
0.155151568606755
0.161598515521595
0.163913148521924
0.165647152132019
0.165853569614376
0.16702456900936
0.181731715160726
0.164163226850865
0.194726500640705
0.171782107125353
0.193910445977637
0.16735804191444
0.243427455486495
0.199085983177955
0.199371743673384
0.218739235597622
0.198328703776174
0.246357040969037
0.224999123556348
0.231842005951561
0.239072852679049
0.245762324024591
0.250911565887406
0.262972749706138
0.26803691401801
0.278128482602708
0.283871831579051
0.284654653402586
0.28765255430871
0.329520777510564
0.316451444496764
0.330188735838404
0.320675053024327
0.339350542221995
0.351137075194235
0.355976946050725
0.35732459066512
0.379654626188419
0.360390232673605
0.422267858687268
0.392376206503422
0.412001342112235
0.412044387541403
0.433708121332917
0.425444162165102
0.442997085929005
0.471898816962149
0.449095633041555
0.477356486027702
0.470684765347949
0.496501258222203
0.48198843122873
0.512920657820027
0.515953863950943
0.517496152289353
0.528890324230557
0.532977897221736
0.53907572345519
0.547217684168384
0.55470370804343
0.551455162662355
0.581660554816328
0.593937513313577
0.592161383473122
0.595337819710858
0.558898420652017
0.58637465243629
0.562214739738801
0.597050001934091
0.584610548858398
0.600157032150451
0.607417773986897
0.579003433028369
0.590300772273434
0.582848058674938
0.593992965281964
0.593947821385197
0.600527784490787
0.593912679343348
0.595446498713037
0.610391981035335
0.55551451949907
0.675475472230362
0.599366461433388
0.599485312580883
0.585970900213794
0.595594162562871
0.589642763346434
0.600584075869943
0.568262752328611
0.597059284290077
0.576880437143625
0.573153946387618
0.567840414532474
0.571704352715256
0.583990888730109
0.555418964374693
0.54433478800189
0.544601207823731
0.531912078513487
0.542955025601117
0.525435896589046
0.555352158921068
0.531723340229126
0.522755447081387
0.517749116387914
0.509017319632365
0.500763484265535
0.501875168398184
0.495361319547819
0.499749063681004
0.492955269855021
0.492519724141765
0.480951374036034
0.487344316737932
0.484057867448318
0.481880351692673
0.480364962779405
0.466945368677409
0.476936744826178
0.472855826469918
0.467809566217476
0.464258452288082
0.468284046573974
0.46822823291624
0.464343089414281
0.463869133153316
0.461299181116855
0.461415492779042
0.459936676152675
0.454804985165903
0.461984967210799
0.455327334929022
0.454960725521215
0.456183794260144
0.45407789215031
0.450639528812814
0.456225831427941
0.449625461290372
0.452964670100443
0.448089760249447
0.449041684479038
0.443097081190164
0.446460236622366
0.445905337458133
0.44978325327553
0.464089430773038
0.43796128141702
0.450620141497386
0.432017405027265
0.440977588120787
0.43112840798659
0.438871482030739
0.442225333491644
0.423179134044732
0.422754691681165
0.4230987522152
0.421762974800879
0.429122653693131
0.416620753331821
0.415859005696458
0.418044501809364
0.404989582245056
0.461700158495046
0.409978357468325
0.465894356620194
0.41541408991666
0.416207565371868
0.402143284641294
0.429118318857975
0.407228536653603
0.402634406211456
0.409708208701973
0.393644399452291
0.414161431122245
0.398248469177518
0.401666488940808
0.399583908603443
0.402502059638937
0.405998274248467
0.399278128619633
0.395687548789433
0.405914919215531
0.395571282703267
0.402465333886546
0.411063527875371
0.3885949820778
0.381714184631958
0.374982534493204
0.375919533796069
0.372296059949313
0.383282259929088
0.379598755111191
0.36163607344453
0.369657714697698
0.354150385071031
0.36309841605803
0.355722015177329
0.361272537489766
0.343632328541118
0.352660319433244
0.352359310178855
0.338742445659789
0.360110564208506
0.339648632941486
0.359558775469223
0.33433878985408
0.339793183834739
0.330347146874516
0.349386687672262
0.33367592170598
0.327316269542131
0.326360449412289
0.323349467860368
0.321219408848343
0.317473675562805
0.308146709486911
0.326196866450813
0.309825126308513
0.317903426609724
0.317295560986352
0.309058284448446
0.305743123730222
0.297983091595079
0.298905876690816
0.302136551004226
0.29431859020235
0.305380689936375
0.281582269002383
0.310088984520089
0.293909213929355
0.309037633804491
0.303189072224729
0.298913820528779
0.299724794567053
0.306671285787355
0.300192730715357
0.320697806203078
0.308606648713003
0.319040047881454
0.30191839118538
0.323758994701708
0.322157943544847
0.326505288616619
0.324201798271646
0.330567883376028
0.33201112815028
0.342086070474658
0.348641407445764
0.35089293890276
0.355370689809839
0.370344316053279
0.359334875535231
0.386520914948931
0.384027257888279
0.382081676652219
0.416167606215362
0.390870507457294
0.432405378942148
0.418032642553741
0.425182045532489
0.435737026784096
0.439904362327657
0.445964361604232
0.449595003205196
0.479203724125913
0.471577635255304
0.465896530841686
0.479204178593737
0.479049200911648
0.486704846959459
0.479268523092098
0.512328208636723
0.47116289166955
0.518375765708598
0.502147628900668
0.511024364585067
0.508025458962751
0.508536234538051
0.521381732778723
0.510796701351804
0.523815767461852
0.51829061577368
0.532161084346854
0.537398816533516
0.53306885538636
0.537299705622819
0.52997363789212
0.536050672285275
0.541043811850142
0.5500176941735
0.556859548007221
0.554784732021656
0.556674327377351
0.556933413476309
0.579791287669641
0.5865167836536
0.556882499714363
0.579016642478384
0.579387446641167
0.579354372187019
0.575066129328242
0.587200043486239
0.599373705148684
0.588617279016432
0.599954970278621
0.605068924931368
0.604422980857879
0.600150553289345
0.607111077649698
0.623685700423516
0.611423016104395
0.629942261300304
0.614031177574371
0.65482515529766
0.632336160824736
0.636442353140802
0.64529055167634
0.638985886699315
0.645328584201939
0.646612578020535
0.651300862698022
0.65388856001462
0.65618723621485
0.651340819685247
0.651301492957781
0.647176408745402
0.659843835980836
0.654965786713204
0.659921647955604
0.65800320963227
0.648572830356538
0.653767171834782
0.657008235112813
0.65159940668531
0.646013042131686
0.667917372371264
0.651805737531819
0.651004020090574
0.652237841194436
0.649941326494839
0.663652827270715
0.652751948229329
0.648089844175346
0.655457505220983
0.656156875552389
0.661258201188523
0.647119076614241
0.656627958840286
0.672845915062379
0.663478032263127
0.67342841507808
0.671443777077548
0.676742086094866
0.670542752208927
0.679967870277948
0.683296182359122
0.685386792062687
0.679243176589768
0.68629159227931
0.69550571043583
0.692870915729875
0.705251000532787
0.697567605143668
0.696004875817434
0.688113672504229
0.688170474509862
0.678922850140752
0.686270894210911
0.68424949030224
0.673794325919675
0.677066835807395
0.666605199371606
0.666023136406219
0.656559514531116
0.65084707433973
0.64318481991117
0.645645251646341
0.637111198374659
0.639883524135425
0.638673691919901
0.632577045331278
0.627911111892267
0.62480022963154
0.619516658078186
0.622396248555957
0.612760404161073
0.61502422638766
0.611359699384125
0.609172288402138
0.61287135671311
0.6075653051074
0.603386268577642
0.615311478033054
0.60907852372021
0.603501960002964
0.598469051210447
0.599741976889763
0.607665926796291
0.608057157126077
0.600125066915046
0.608716400148836
0.602919696398157
0.598991204826135
0.6038728977143
0.604825056746886
0.601762218658555
0.603750445114565
0.601930172845003
0.599034713730853
0.597063190284446
0.599513771033829
0.605192634369429
0.601577425781149
0.598105808873755
0.603565760441149
0.596282865308957
0.597411727704154
0.592852115992352
0.592767561910555
0.594836149233547
0.592733347925604
0.598533758573871
0.597276500095594
0.596306615117105
0.59659330500532
0.594027043468806
0.593467784279379
0.602059309282589
0.596876628382429
0.599671946888826
0.59368676034133
0.599240553739036
0.606231018459671
0.596674021747174
0.595099028184077
0.592114182052699
0.588932885662529
0.591427611209129
0.585688103250432
0.581228655548444
0.578420892534734
0.575540913371839
0.574475795100569
0.569641549307698
0.565602327036618
0.566377007050315
0.556274380334896
0.549557192175884
0.552419888694515
0.543985479363882
0.541303251556931
0.537213632498654
0.535623353313853
0.532736341916429
0.532488370639827
0.523527522760461
0.527183709753285
0.524473952280073
0.522265197278066
0.519441116426363
0.521707140681397
0.51874922432437
0.522391774492736
0.523943769844159
0.515894613727561
0.524706573375252
0.526670589735659
0.524810003719668
0.525043641278113
0.521568046278968
0.523873089798059
0.529165820950083
0.532065997686518
0.531589566553838
0.537465992080828
0.538519283967608
0.541613089888112
0.538035020512667
0.545517681377361
0.546480729871745
0.549393389896795
0.551938482173009
0.551467375943864
0.548628557472775
0.553126152079698
0.553755423155302
0.553338935232359
0.554905542099009
0.557021383559358
0.554419838220571
0.547522098495342
0.551443641977774
0.554886249693335
0.551897585234158
0.547308862034679
0.550997047353172
0.548338448218882
0.551063049066382
0.540911181499262
0.540387090521789
0.541228693117768
0.539918525565866
0.538572409755044
0.535924209732204
0.535788062385466
0.537154606094371
0.532460910046962
0.527769606037692
0.527756991365476
0.525521281754832
0.528007648597697
0.524577863294801
0.521122134956816
0.520866059235869
0.519252570526823
0.519539724930148
0.514425946349078
0.514051736540315
0.511288631704399
0.512773155298063
0.511601716754471
0.508512504566672
0.505270554824147
0.508647691311744
0.504754910538178
0.501002902428443
0.50128952457981
0.493737430887586
0.49371019218411
0.492879849471587
0.49099683196806
0.482524538420688
0.48445906567465
0.481385374236586
0.47623613426771
0.470051496372123
0.467288318653084
0.464313249595946
0.461215599585282
0.456560874468481
0.455113268208304
0.452819277292449
0.451527533294175
0.453434085042606
0.451721635367639
0.446848735969937
0.449158210820919
0.448745611635729
0.4454943713587
0.442560507384197
0.436776658871107
0.436725441442011
0.436071541196399
0.432443931356235
0.429066564878161
0.422413609374014
0.417110170060862
0.40897015409382
0.407415601322125
0.402451447296743
0.396993343676459
0.392211789237027
0.393362256864432
0.390614822664276
0.390668391094983
0.395482778092704
0.39710270947079
0.397282110475851
0.406330198460459
0.419425251540645
0.424291138303108
0.435060765917676
0.44700181508345
0.459364261486158
0.47418229245727
0.493939018746112
0.506447888885254
0.529109730660204
0.54625295407312
0.564828734886791
0.580562445175963
0.595762593574147
0.610698254065029
0.629149849851204
0.648977007795676
0.667436023298563
0.679352699393945
0.695952813493497
0.715744224466187
0.730918967566746
0.744643700173239
0.75636514557846
0.771546852111099
0.784593241713324
0.79004371982946
0.799442552080962
0.819990836134094
0.816512703059236
0.828542287819604
0.837784958481146
0.848337224015477
0.846280170869895
0.840794891572122
0.852433384267601
0.854378061211422
0.855323408802024
0.863967925707544
0.858276006880142
0.865871465875702
0.855184468185294
0.852523950089932
0.864671354840215
0.865175643697122
0.866431505724011
0.87266642486481
0.863985203221449
0.863265031916992
0.879664305074636
0.882384345050758
0.88936598008678
0.894643512582169
0.900318806389614
0.906579488283953
0.922428904824369
0.918651113646535
0.936446509686949
0.93468819179145
0.950642896393418
0.953214640437578
0.966915380536938
0.991424202258516
0.999884067291264
1.00059824882361
1.0152905169517
1.0246063671768
1.03651542563971
1.05851911122014
1.06304300978281
1.0657728401875
1.06495226577896
1.08493311812335
1.08144261545142
1.07026485890534
1.07801368008884
1.0687912018177
1.05614539395172
1.05901280843597
1.04885810728067
1.04257870107729
1.0481384411463
1.05308540102483
1.07150703425938
1.0888926328671
1.06987979892553
1.08528346029778
1.10647936778547
1.13125707273875
1.14498211146629
1.13893338689126
1.16113479558371
1.1715317059345
1.21012997730382
1.20011979223698
1.21336739428617
1.24423470174322
1.2760234111015
1.26832791244137
1.27722280618538
1.27774997750984
1.32009958889789
1.34538214125862
1.39971945993949
1.36949357037082
1.38475390621646
1.40185634083393
1.47644865747826
1.44987733305505
1.51706838672187
1.47845157528693
1.55209369034935
1.56600585467797
1.60071675588559
1.56172535451888
1.59553257319406
1.61840560597542
1.63954465788364
1.60650517914981
1.67048426966032
1.69915717331783
1.68544850366669
1.72125929723231
1.71881149535737
1.68431610655987
1.80760052641065
1.73279380864008
1.68128174887261
1.7235802843257
1.73400924979343
1.6486193269512
1.64548547740065
1.69206996063446
1.7255700039065
1.72916209518473
1.71590624727827
1.69666266300317
1.74950414907195
1.73483485269031
1.86611274427278
1.84412491968538
1.78656320245962
1.73946892894083
1.79502090928393
1.90475837048622
1.88519694731947
1.77259551999076
1.84283423396837
1.84746872066884
1.90215959346754
1.94319153025514
1.97990898435362
1.90044062784572
2.03258160093887
1.99595362137894
2.06726487112902
1.93657741741197
1.96116446142068
1.79615978841303
2.13051141715675
1.98658023014753
2.06116339232116
2.0818429687199
2.13262592017934
2.36160817631004
2.11722240767788
2.13094594149945
2.1950614652214
2.00199927569545
2.17878389664983
2.18502669598855
2.26596426214565
2.073925539099
2.26150109715634
2.06341601513852
2.09133011623276
1.95283445278801
2.70377600531705
2.20286155261448
2.12780630274369
1.86458543128153
2.13465344658042
2.05723071950662
1.95622640706893
1.98472755379049
2.09597462837802
1.9385524688068
1.97264716994212
1.78366459064696
1.82686168756026
1.76760450266214
1.75590152988038
1.66796306604507
1.7962050775359
1.71724605987985
1.66649175178351
1.62004901526456
1.64494164260176
1.61057604159094
1.67097648202951
1.60883193143138
1.63920869991838
1.56564478596112
1.56642570825418
1.48485217551607
1.55848311261936
1.47030072061858
1.43982291855153
1.47317742990495
1.48335914225082
1.42881462714254
1.42611204936921
1.39455589331098
1.35368718230734
1.33327992113044
1.30917934466231
1.2819020507487
1.27975716955056
1.19359542371347
1.19084936268969
1.09985742338217
1.07754439474572
1.00820343160121
0.994573239494778
0.967306025100566
0.928714811445291
0.8955822774801
0.864264708249141
0.822373295638168
0.813027446075277
0.769562080770779
0.74147380998606
0.715915101463892
0.697508720137607
0.675655240985443
0.664319485543918
0.64565497597974
0.637968701110998
0.627389884265373
0.621351538393379
0.607966473016281
0.605577710982068
0.607892974883294
0.604878923423288
0.599607306058022
0.592620453543346
0.599925130198106
0.591538170536721
0.594208724878087
0.598338085299202
0.600523219300542
0.59700979413388
0.605654686727933
0.600562229251791
0.60092555140303
0.597183200861042
0.587402590274212
0.588044246344713
0.584619860153069
0.582907833864473
0.573604889267705
0.571376907302718
0.556304120012044
0.562896309557008
0.553881783148798
0.551034689775566
0.553025916010948
0.550748004573787
0.552006297895672
0.54629181444418
0.551925782314129
0.555464623023848
0.556121138160788
0.558759258212638
0.564058537600392
0.567003081212204
0.564633052029564
0.567917993192225
0.572044730361123
0.568957469404314
0.569782461904342
0.592369806138179
0.580532141524796
0.584303609278722
0.591202126945149
0.586173235078738
0.583398045433987
0.588366487439221
0.583535625756386
0.592848318936638
0.575358417372664
0.596606333198494
0.582907449487695
0.592778498225284
0.589472001409833
0.592847904237334
0.613157066074582
0.610119192236789
0.613893304858247
0.63094391547088
0.63736638441105
0.649992384746249
0.666696983933117
0.687710819426152
0.696764356156435
0.716580032782712
0.734147829615369
0.734847352270156
0.754755872918213
0.775483021419512
0.783087441084104
0.763010694484015
0.754293772604785
0.762299902934718
0.735449032628417
0.73353096329236
0.740114305145339
0.741269019206085
0.710769862877749
0.709825576766733
0.699141098453477
0.695652636646605
0.684961842266435
0.683454123487277
0.683502539710819
0.701191278279963
0.686098986211837
0.699268153621496
0.702483753730473
0.703566437068692
0.696644756996155
0.708249952366039
0.682859821016803
0.685823261400965
0.683018549544451
0.658917011681094
0.661451497180242
0.670036645040823
0.665779921787922
0.646089869597065
0.633360352503138
0.639826312413885
0.636991905951332
0.6292843499482
0.620160993355463
0.618918951863732
0.611901743138404
0.625820337057253
0.608950407192521
0.615669352483117
0.606078612771475
0.604777356162942
0.605731035567282
0.60621648581373
0.59970057397032
0.596218176663356
0.580473288869687
0.596355574161301
0.595228372387307
0.597921512567453
0.584508790744587
0.585969350987272
0.574693004571415
0.591306692916132
0.584204332369721
0.567455953440602
0.559936592623681
0.552006363455053
0.547416602043469
0.56741883633087
0.559236895632182
0.566247457439409
0.550900505510844
0.544843148931616
0.541740285038875
0.55825317753364
0.555727129599886
0.549619337104294
0.540450659049719
0.542740754691815
0.553397390401716
0.552530723073075
0.548852178234401
0.540160971432758
0.541257382564931
0.56663750391248
0.559837884019656
0.551995081398241
0.554244504833817
0.547046981157845
0.563057023515378
0.573451225136649
0.557048067452713
0.581962240659875
0.581912701261449
0.576243536301461
0.566650998092414
0.557706943992406
0.573948818500453
0.583166026868685
0.572382904223799
0.582123871827356
0.569213133720547
0.602200273942576
0.580788519781305
0.620978173094118
0.632512512389854
0.622265860407014
0.604540823705029
0.659692963443316
0.650427553359581
0.655286518851106
0.671843391091057
0.704519803238828
0.712725688203771
0.740545963421153
0.722808189855369
0.765920775938384
0.76425412309651
0.805499902858761
0.810795537615873
0.843144368004791
0.82731915549405
0.829065499108318
0.84190424442823
0.944585254293636
0.922265127056381
0.957721240833398
0.91914654075902
0.966873719300822
0.857784833911104
0.889899698264714
0.862199865475347
0.952501501466984
0.884494300511423
0.921110880985702
0.898234878260874
0.945514819917495
0.884644866169176
0.944899422036039
0.899436424717852
0.918853423598897
0.876503264677505
0.898462378428197
0.876246547273011
0.861983752353335
0.89872438572601
0.878428103365936
0.824453189866408
0.862260861616402
0.80656041427488
0.899320253567158
0.850981880966553
0.868949010496628
0.832380716022095
0.894758418713132
0.832891334945119
0.882655046774796
0.865057752534825
0.867307624238836
0.829942085256276
0.861682308570779
0.794747244961446
0.877260409231262
0.786824514918055
0.823502649644806
0.783761791148377
0.818453575015706
0.812505621071575
0.819762795465014
0.774901589040175
0.770095288298036
0.833197150907706
0.895107546860984
0.889049426188365
0.897637384815982
0.776092467801469
0.827008917387083
0.813994035411176
0.881969043732015
0.809493765659991
0.886013328071668
0.892448329087125
0.986183622812504
0.828586974903101
0.767184217392885
0.847959497786931
0.934605127800003
0.87527617036243
0.879349418517686
0.793802907320219
0.929352483657147
0.974480238756212
0.995565518566482
0.905648834790251
0.940308398497039
0.895763754942161
0.911698290088241
0.892268288482185
0.980787313701686
0.931318958420921
1.00174733997051
0.916695559772161
0.95251889036249
0.921919304151019
1.14134634641929
0.992105449578635
1.0686918692212
1.01427130437536
1.03346692220636
1.14898368586932
1.68445989179513
0.980481300963776
1.10846489541968
1.13805886138212
1.16820848294912
1.01048260727422
1.14907619833485
1.20553216961372
1.42727676257148
0.808889265189969
1.08572667419534
1.07775901395073
1.23525895415131
1.06573925158797
1.00431985014525
1.17479329620516
1.16314092366625
0.897495956163614
1.36831323335683
0.82905158585694
1.09090977120088
1.20372106480864
1.13540378150208
1.03391694568202
1.01206770786046
0.896443370563955
1.38073353325831
1.15782525370912
1.27376225215468
1.21714784811604
1.03538993522893
1.11348832387193
1.43983010078576
0.914383634821774
0.996362753026414
1.10441941602246
1.57826934103791
1.21497188677955
1.31108875868531
0.818263677355078
0.831871125562077
1.5145865942051
1.18037218571869
0.752884963669973
1.34611007847163
5
5
0.701309355828843
0.96197445162544
0.922829515533951
1.43787839436899
1.12046347932504
0.917643643877653
0.951118793523003
5
1.22541467111505
1.29190418605808
5
1.06971073720353
0.796549216726252
