3596
4000.36533379555
650.420452594757
1
2
2
0.0409466172163943
0.0279407340702071
0.0436352962430819
0.0168952161992813
0.0420779543548026
0.0164956103334873
0.036665092120659
0.0191642715597093
0.0343673506658017
0.0140166728411849
0.0279873494826136
0.0288911345980813
0.0471479344268082
0.0259553390469475
0.0310509165601806
0.01728058881635
0.0327277332946296
0.0156684462298344
0.0350352617859475
0.0298693151431002
0.0418817785773257
0.0176056922483476
0.0428400563691146
0.0193148763895181
0.0381483118600578
0.0267415878055779
0.0392101715655863
0.0233899845261014
0.0331431702550085
0.0262577139628688
0.0400585209665056
0.0287013092106788
0.0327025264025661
0.0330551953160933
0.0405495816322538
0.0165953128268727
0.0311205569435838
0.0241076827715173
0.0395950320187854
0.0275650357496992
0.0462508059994172
0.0278377118814408
0.0320722631930196
0.0223623250336062
0.0300708503022736
0.022930895608021
0.0277289863213883
0.0211681753470706
0.0387287929162737
0.0235552029817416
0.0406344342654845
0.0227885834621616
0.03498687129346
0.0273907945608755
0.026336890928421
0.0233659677966067
0.0334144159386344
0.0194160047028485
0.0324456239632834
0.0279046452488105
0.0344722613763858
0.0323936090704937
0.0346936084023193
0.0242783474371772
0.0296667566900203
0.0199013222065346
0.0312844143036379
0.0323324354627293
0.0332302790660251
0.0308282339435492
0.0331656252505199
0.0241614519638983
0.0496123096235347
0.0131625309447149
0.0487270296876229
0.0223439782593774
0.0318590212925101
0.0220760919556133
0.0299358224579494
0.0114985880402475
0.0408047790719152
0.0142928931521985
0.038216316023381
0.0178598201934046
0.0252817346655054
0.025805366251671
0.0424745694982468
0.00527901897222717
0.0506263742049123
0.0212969571100321
0.0373567628608353
0.0248258569270493
0.0367785314619373
0.0204542267838031
0.0342735679014443
0.0227348339301028
0.0326587063262858
0.0131723408921757
0.0370436802518945
0.00913967908219157
0.0453974901333456
0.00145231860541695
0.0633410757242253
0.0159422330795893
0.0370869906664826
0.0345462810997684
0.0104907754666195
0.0363501269685155
0.0340213645715476
0.029182792332532
0.0287825464313341
0.0289572654734
0.0263459231912656
0.0124224287998297
0.0316753923020887
0.0230502152445868
0.0414200167517659
0.0177753844709923
0.0312332642028874
0.0156550096725101
0.0370124103156387
0.00723946681530321
0.0651334442905966
0.0107982627015391
0.033942345266053
0.0162150336407739
0.0363179723750638
0.0187326209140465
0.0411135958218801
0.0180057024063612
0.0430047062156545
0.0114269994754565
0.0398727031531723
-0.000362516079409182
0.0638330891397879
0.0116887988689963
0.0306212900855115
0.0230663347904974
0.015512526297107
0.0254037326757451
0.0326492560502482
0.017555426401696
0.0330863166817529
0.0186140288298066
0.0481421335121631
0.0124645007796033
0.0369135765440081
0.0266817753091902
0.035822855300426
0.00580022434994871
0.0260012297551319
0.0180528775533562
0.0339199483115996
0.0208294819654946
0.047245588711141
0.00632529359692052
0.0771709903326551
-0.00719581449837028
0.0662284042127726
0.010380184262051
0.0351232564957795
0.0158077999702754
0.0238618135462153
0.0198295020919083
0.0227382577100536
0.0196180237618259
0.0241171004930113
0.0305274094489862
0.0331146149447738
0.0270021444276104
0.0337829335566777
0.0296965361690567
0.029462673925464
0.0093204974350375
0.0387247005646854
0.00345367129703464
0.0447122542871518
0.0103298008957131
0.0409563304279593
0.00877700424820946
0.0403378403926757
0.0203421655945683
0.0317694062221023
0.0116735302788075
0.0386288500630703
0.00913371681761746
0.0397793740622049
0.012313571575179
0.036909001739091
0.0180602286145392
0.0419777971509502
-0.000129304916560007
0.0485126160491868
0.0108491624947875
0.0337099954726126
0.0231668529487819
0.0296524407839989
0.0229551393687046
0.0279119819544083
0.0226769207153694
0.0246134485734422
0.0106804316210606
0.0330178128743508
0.013654232742362
0.0334313687047517
0.010122664816209
0.0282659507491197
0.0175256570514664
0.0302054432102764
0.015049329937305
0.0339520965036344
0.0199524434452611
0.027499348137144
0.0394281645056322
0.0226010833068265
0.024714741688795
0.0196293766250652
0.0173690652264714
0.0315375757696216
0.0195077685248806
0.0293753833143979
0.0182063687063284
0.0381638201207215
0.0200598128472235
0.0251511177247321
0.0210139614091401
0.0256256664596047
0.0182240655994628
0.0292100398634087
0.0216140458509305
0.0283560678752484
0.0289259115485399
0.0336617914281808
0.0162228550720611
0.0379718627412725
0.0219428214364066
0.0450583058954981
0.0163514630978779
0.0314052089810707
0.0176863705905234
0.0260699898473071
0.0132083096102279
0.0358704756317948
0.0178524598364161
0.0289759876894944
0.0188907254419848
0.0332809670160406
0.0197698885214207
0.0224885166012226
0.0335153786781759
0.0153095786406875
0.0366426377892149
0.0118305524581904
0.0261361234114334
0.0160588473050496
0.0404144196648615
0.0216068341111226
0.0294566542985367
0.0427007461663382
0.0351522461898155
0.0216403998530639
0.0302987128494417
0.0271363019808379
0.0274524705370829
0.0278035342329764
0.019831827746695
0.0536817415607642
0.00505561812521294
0.0389940633699856
0.0369692706290681
0.0273982435426451
0.0430628445363455
0.0244687721129654
0.0156343569599348
0.0362782071183534
0.0207145102296954
0.0291337363203494
0.0199375234202691
0.0362201851871333
0.0159300740229745
0.0498719930185603
0.0213164642664311
0.0616501177847201
0.0252036886283991
0.0279622533709135
0.0442505435150336
0.016712880558794
0.0300402618895197
0.0213802278260962
0.0327456667703694
0.0248397566788786
0.0348303033579317
0.021200169597682
0.0421055732923243
0.0206291622736197
0.0379547613222461
0.0271177672411282
0.0281760251234609
0.033391386463419
0.0297644544822423
0.0377888128384332
0.0393458660559852
0.0341884754604784
0.0325920656483016
0.034621670471067
0.0235230294990896
0.0411008365762597
0.0259145667840635
0.0372510404109327
0.0369480201722751
0.0331148844327229
0.0352230820755924
0.0339711274670995
0.0302026247849896
0.0333191802741873
0.0320693897393399
0.0385076383987692
0.0298603606525939
0.0411512580989505
0.028143620920771
0.0405557591774315
0.0262348568498181
0.043582845387946
0.0296875086060237
0.0326356498636327
0.0326242256194465
0.0453874178836531
0.0334615975949967
0.035041680778933
0.0482313269243813
0.0379664345641441
0.0373774611706803
0.0553706634993756
0.020642874309479
0.0579218923609093
0.0279675937603947
0.0483376612876948
0.0409497858944223
0.0448731245503131
0.0400602706629127
0.0405455938182478
0.0428034770282956
0.0496985107215153
0.0372578828738373
0.048432018260163
0.045796106714793
0.0581079149715544
0.0530051080859855
0.0574817913646026
0.0521825028514702
0.0483584450648928
0.0681780410995914
0.0344121045764378
0.0666397034338492
0.0422293946059096
0.0507480389585205
0.0651554420864376
0.0504428657867271
0.0569560444670014
0.056333033858947
0.0698640953578772
0.0475614999348485
0.0660357276913498
0.0564554931199367
0.0738174694612243
0.0577043354815218
0.0740021347615132
0.0587369531169322
0.0690226751314945
0.0708430632491588
0.0716932513231197
0.05798271344575
0.0893388254312741
0.0637234502590006
0.110741115727746
0.0469654095377134
0.0955379070647137
0.0846263451389557
0.0870229476618503
0.0789709928840586
0.0804016248220709
0.0851133586980817
0.0885290444133727
0.0843788162614957
0.0931865500863182
0.089067634525381
0.0918075539023439
0.0952746817181312
0.0922007209081595
0.099000523474743
0.101623263458944
0.113126280722714
0.111660207978743
0.113232253076663
0.100990781432375
0.115624534993464
0.105141722068315
0.152069006775876
0.121218926695321
0.119335939376063
0.121311749554446
0.12154941004993
0.114590519282456
0.120519001555088
0.12703123883634
0.130781507803604
0.145141479881338
0.132490887505374
0.152927342959113
0.144241379476601
0.135518120616722
0.141066477119283
0.13695464882987
0.141817492419708
0.145468812519045
0.158570693592042
0.141732157237927
0.16857378733153
0.15248306065963
0.163663214971904
0.168359254329604
0.157116588848625
0.1766066035624
0.160235580534184
0.171353376023142
0.169638733435779
0.186923823349853
0.17068509858737
0.172895183538347
0.182082162337835
0.186267902267599
0.186952936928078
0.194667848621854
0.187005121992808
0.202768478261114
0.193563121284734
0.202454295436507
0.21769328440007
0.205940141836606
0.225021046527502
0.21306545495912
0.231745535516191
0.228571741742913
0.209799120730791
0.220055092964792
0.222068658741155
0.225360946673507
0.222808713267939
0.235682200444644
0.238952996295066
0.254108286416592
0.247700139304163
0.264791147734577
0.250589978060736
0.267939520768681
0.265624174306276
0.261573026829261
0.265427109910312
0.277073935508148
0.28125698207049
0.260973408135639
0.288237197630974
0.292029523259519
0.311763904114247
0.31700669376766
0.300200987376339
0.296959783177205
0.298256519960751
0.302121276550886
0.298335939627023
0.324124001298199
0.317376654690205
0.347359154148837
0.328042015707279
0.332020168460468
0.344257667035644
0.351293084196216
0.359299579856616
0.345475161609483
0.344214232801149
0.358623183260738
0.375735305621081
0.364683179300077
0.364794190989652
0.379688290331231
0.357310728282879
0.363604168262378
0.403950481429322
0.404561043255588
0.381080774056889
0.416112879826676
0.41610783992368
0.403904415657167
0.404257605518544
0.405936687874766
0.401919619989437
0.403084647599482
0.437948752348914
0.442660712053467
0.44151324804539
0.439693216659778
0.43862070645087
0.443441592464648
0.476296657320107
0.472055657966261
0.48239677035319
0.449527664788014
0.470542230164179
0.478734850914064
0.46769645775278
0.50942511565774
0.5091390954625
0.516592117776976
0.522609432773493
0.504259130598463
0.496576100687773
0.483946809516847
0.512927855481251
0.497999166257851
0.516097437914557
0.521860757868951
0.559045606193547
0.553248247048972
0.572886831938994
0.546139917142287
0.576978153329794
0.586912622238243
0.609650185943552
0.55556436672251
0.592668721008141
0.577850748706109
0.599997057209244
0.580947088977473
0.598242957934378
0.595980351892107
0.601729171457564
0.609718611225059
0.626637402159521
0.602914855449458
0.611524289914799
0.614803150548936
0.621250202990389
0.635891219753245
0.670978181604996
0.621677127761931
0.653041162413403
0.65708904182757
0.667462549949012
0.660373613794853
0.66730673453447
0.653396104335248
0.74440353550969
0.686968821038973
0.700568877944198
0.690036352868923
0.738610561002848
0.691436011415672
0.722066441704204
0.713885958717594
0.740290584943271
0.733902208670782
0.745838311261794
0.729051208995694
0.759734205030953
0.71743282707445
0.780477842832745
0.758408652924508
0.728375027589532
0.721906770991477
0.794518920396001
0.751936357633457
0.784583517274762
0.797049357375053
0.822548547999984
0.792608324043284
0.796749691464129
0.781567713664299
0.832855005522533
0.786617172766329
0.825248499900329
0.823472148905731
0.862225248559294
0.843703272494566
0.87605255758039
0.832986957906015
0.850962143323212
0.816387120195348
0.905764448361931
0.811514683249107
0.897976943944796
0.83316372268912
0.898002275851102
0.88299481265727
0.958726657901002
0.91539885556188
0.887871806414083
0.87659819660303
0.909672218912402
0.861936915120672
0.888718303051684
0.888887216327447
0.888183376506145
0.845204111171849
0.973158346519567
0.929843123094468
0.890302136227127
0.925989935438522
0.96234690630191
0.89668674089406
0.999317432921137
0.953288253577578
1.0432540478248
0.939357270269618
1.05938985988586
0.951109181684103
1.03375812277155
1.00422439881512
1.0855223159847
1.02582104869528
1.08968626761802
0.971242933445445
1.07848305864218
0.974448157211803
1.0089377858658
0.96686954247819
1.0591057431066
1.00350812381876
1.05874046901179
0.990523701285963
1.07290785841459
1.03833398975304
1.05235071866365
0.963906372266014
1.06371870879104
1.02614348445978
1.10502585893234
1.0693383793124
1.10967492275296
1.09329907502498
1.04003005030121
1.1228979855728
1.07001455950751
1.03906535798679
1.11843201389441
1.05534977123303
1.21128227670798
0.989185690345781
1.12061638029459
1.04038025986843
1.21622656139673
1.14254083723529
1.1607144875504
1.05390644063872
1.20231451123986
1.04178747309993
1.12200167348706
1.1258491411456
1.08397579291502
1.09792592741363
1.15070577003259
1.07762153386602
1.18698651391059
1.12812771443239
1.27057756024521
1.06018326144697
1.18351988124118
1.06646485127097
1.17139344429672
1.1161842195191
1.21941325412244
1.11113629938669
1.28682513543043
1.13190376503084
1.16082283906991
1.09014506523333
1.22488050199925
1.12512984829275
1.23716161891399
1.13313485623239
1.25273986182822
1.22759795443916
1.28265604039633
1.17045353183098
1.28926927206076
1.12549921023222
1.22089487943638
1.13567750595007
1.22384502341842
1.14166016119829
1.26533352481465
1.17145236678422
1.34388661567699
1.16109859188312
1.25277215921698
1.20114784127405
1.13743566300833
1.20689715925633
1.21819983208745
1.1489581118882
1.27189876904705
1.27521104679485
1.30271591626996
1.17431936241021
1.24279606961065
1.19002414052246
1.23424109469058
1.13648102759395
1.23805951144048
1.10797343431831
1.2602585600682
1.29523056648447
1.31126635251753
1.15981670547902
1.27153260715941
1.19096772739331
1.26999855121935
1.09686327337978
1.29826770734957
1.2066699851629
1.20453020796036
1.16156309709874
1.29091710286246
1.2753500072627
1.30640844202847
1.14129165810908
1.30436935231613
1.17850280551871
1.40030760996714
1.12972876014036
1.26421250428089
1.17925824438025
1.25960357497186
1.21833922548103
1.25164905091654
1.22192868039048
1.33779343844698
1.22881397367156
1.26703374426819
1.18365574095139
1.24324988608204
1.1496034150965
1.24052008555258
1.10459369263277
1.24986943728862
1.27190181688338
1.44468294321359
1.21536243964171
1.20689427118479
1.25251483322631
1.29943539617545
1.13799752949384
1.27168822118254
1.22681129663076
1.26135351683722
1.16271632269389
1.23098061547141
1.15968699612394
1.35423726165629
1.14987986863864
1.22736242731445
1.18967958163376
1.242990796021
1.2003859083258
1.23642065049767
1.2084810580818
1.28607475072635
1.13949322872987
1.27967729673815
1.16416327323455
1.26450169533085
1.14761677462735
1.24786644051568
1.16725418186213
1.26711171499548
1.20592598357379
1.26473466530845
1.13983646709646
1.22103862833013
1.15723415379763
1.23598939016846
1.11210297607229
1.17934689134551
1.10115993133557
1.27851457820977
1.16468984027013
1.18906838619967
1.13979846804787
1.2578801855663
1.19056375711548
1.23262982620033
1.18517628099685
1.30967668728814
1.15344019223466
1.19414063793427
1.15831714576814
1.25296190357473
1.13504532548762
1.14932909347513
1.15267544856242
1.20063269431314
1.11369268146379
1.21176295260019
1.16347703112006
1.16230034795167
1.15283880851439
1.21489099032773
1.1457731583207
1.13320811337595
1.06302270574414
1.22802073904526
1.14454201749194
1.15215106840027
1.10299232128366
1.18754560430727
1.04586553314544
1.14223947219531
1.0904791711829
1.14397080884681
1.06581233758194
1.16858825111003
1.07124839000802
1.20933999255726
1.07218127071289
1.21837141319674
1.06741386482679
1.13776554044384
1.08515243549758
1.0954970425505
1.07241194652425
1.08986919769463
1.03499787420094
1.11092204853561
1.08700696935666
1.07768919455183
1.04105854664695
1.08268049549811
1.06305575522373
1.06960153848408
0.990033695859767
1.06745184954172
1.00744722109191
1.08412797149698
0.988836427896579
1.06919178297236
0.977639836604502
1.05468164425982
0.992859280709697
1.07456314844833
1.02823620644182
1.00894010072026
1.01143765399223
1.06112070476118
1.00043396807722
1.06429284304339
0.972547227440619
1.02907197576309
1.01674259737061
1.01849296275442
0.940304029000526
1.00760528786162
0.909299708944225
0.986630557087974
0.940605642303153
0.969931376362598
0.945642893166265
0.970195263249719
0.931915069762016
0.977324426087807
0.897025882856973
0.960455247222577
0.92771227135302
0.95275927395025
0.886781005805252
0.921943978470179
0.91156705503695
0.926390014578622
0.907300097086477
0.907968903982716
0.848232442908461
0.918362917787542
0.853216500772876
0.878178869999044
0.865544076574907
0.89520772722958
0.873328280005034
0.881787405138449
0.842346261341667
0.914829275214714
0.819313570778812
0.882875268008897
0.819244002495162
0.861394242294483
0.826143372732634
0.870041471712648
0.815852527951393
0.826730986415588
0.811606632448772
0.845476304330816
0.806338640191902
0.830558754617867
0.783645112309661
0.813671240190694
0.797014773547347
0.830560403666881
0.785863933144161
0.783200713733486
0.785153302608514
0.794533872807444
0.741913243705069
0.782067260938147
0.764032307021253
0.776124600739855
0.739214083601164
0.774617740707974
0.741751218002952
0.738438849226499
0.752988165042447
0.784370962602797
0.740378654364988
0.750765929957341
0.73326567288744
0.730769286227861
0.686973621580643
0.738479720829537
0.710444519347659
0.724700279416613
0.685909476797071
0.71103751380595
0.689051976173168
0.712342046486518
0.698997054650969
0.710798786512133
0.669701061911798
0.682755620424998
0.675651932311862
0.67733726206704
0.659487955699286
0.67052169221545
0.652568669642157
0.680798646530331
0.658715447572896
0.649250969737234
0.639925035678977
0.678237902670558
0.631567858564234
0.659102474721985
0.626951526439952
0.650868817786792
0.620259377261162
0.627651073806692
0.60598843597864
0.631772660570489
0.604970968557435
0.63023297585126
0.589747596590508
0.603712582010944
0.596105468872745
0.621873952612236
0.599891681424685
0.598127246494215
0.593948738358984
0.605101832048808
0.572235389901264
0.586022875278704
0.567162077389285
0.593259547549719
0.564701507544867
0.573133078240051
0.565768503119955
0.588228005313158
0.562896525576256
0.55298110508519
0.557901336001244
0.558026890954411
0.541451217059891
0.544481777533764
0.541125000020404
0.554340884767285
0.533171797695308
0.538520199319862
0.54031864221297
0.535624996710891
0.520790624929859
0.539425264600943
0.52567111704783
0.521936743802315
0.521425357328062
0.515368805425449
0.50117077420085
0.522402779293331
0.501931206029317
0.520618027548918
0.502261063875021
0.515037393488602
0.484395820523658
0.505937412810955
0.490392809775557
0.48692873580507
0.479972909404264
0.487317984905152
0.487605079135202
0.489118819413707
0.477078188594464
0.488205122972073
0.473702518092941
0.477486934600118
0.467518641030823
0.474227362195003
0.471842603993138
0.471514030850623
0.454207474031551
0.472673094554793
0.450458684653031
0.452375789680059
0.444913495924572
0.45609561705917
0.441858770882817
0.433117692383967
0.43441744363816
0.450644048731587
0.439474571349513
0.43145092087559
0.42895430123103
0.427399656471216
0.427135591758835
0.430140092732197
0.419358990082433
0.423930988530638
0.412823508544746
0.42694023200679
0.403292189454447
0.413707823795264
0.408551975347
0.415385478764451
0.400529756530867
0.415828047442818
0.395586753401232
0.400216262431157
0.392969619680647
0.404282564998947
0.391514652099132
0.399055195230639
0.384079447595639
0.392669074611563
0.387579391769432
0.386597425978229
0.380799002430876
0.386760691698084
0.372728961361001
0.38592974264537
0.372691023747609
0.375145941741138
0.363756562528092
0.381816062940719
0.367781474328355
0.370280363888502
0.35485273876588
0.364305452705952
0.361237648481117
0.357479410839537
0.351048205312948
0.363973528107083
0.346083140919447
0.363451815884398
0.363127901874945
0.362649498153793
0.350765647166897
0.359822756105136
0.334666947288386
0.352918610012945
0.345843324946665
0.357518437143124
0.343150271076188
0.351807271790423
0.342672827818781
0.356085073978994
0.343972597374672
0.353637919822621
0.340178612195235
0.350902654778461
0.339891883085159
0.347717079566301
0.340760056357474
0.353363300342799
0.350862060461306
0.34692998533383
0.345288471242395
0.35604421525575
0.341330304140748
0.358494352172516
0.340578382769475
0.358819697975185
0.34851264204417
0.362466846739584
0.355931173126931
0.369144816735775
0.35469630662883
0.368320840874563
0.357979743506696
0.367886347841239
0.369010181778035
0.375557871579856
0.369874191522542
0.376231966734364
0.378398411478249
0.381459918548554
0.37479179714447
0.394792118364825
0.37034980521665
0.394330975538048
0.390640890064339
0.397186491162335
0.388834730177706
0.400563370393982
0.392639953189449
0.410102252958811
0.399166498191214
0.408814951572793
0.40027020678914
0.416332752078895
0.410941080456913
0.418051338103458
0.406672708169677
0.429635380477536
0.420580221961966
0.424575697392922
0.425770160173785
0.430988889319513
0.429433799698853
0.441816127297469
0.435650998847232
0.437721625171874
0.436134276073307
0.452613227805965
0.454732453239585
0.463009232591609
0.455335541078489
0.461684347061481
0.463451652739676
0.478264316552813
0.46565939319441
0.478420789138785
0.474923491042178
0.482892484650972
0.473842389053998
0.495954442203556
0.480406385365538
0.491277660594974
0.491472184958469
0.499535300449824
0.488096163993312
0.507054990772103
0.491995398787899
0.502017353177732
0.494267102333445
0.496834768356852
0.484298045648144
0.499541464921852
0.487367817693165
0.491825380665324
0.494099023018322
0.503577632188971
0.492327115645202
0.505405494953507
0.484739908717148
0.499281320118059
0.483064625121243
0.492593320453667
0.470484005640372
0.482752090959091
0.483008956435457
0.495401214312021
0.482320501480109
0.492777931772417
0.476268932191003
0.481620368609872
0.482216560678659
0.486902504798026
0.478349962768904
0.488665761881144
0.483326330025364
0.49392446946576
0.484950128451613
0.48519166528142
0.48465483802973
0.488168211983508
0.480397152695081
0.488874591090191
0.47681536788594
0.490869126022439
0.485139576256878
0.495207417921646
0.477634863176778
0.488844999609079
0.485304366524297
0.491921600568356
0.489030749251268
0.492589088411374
0.477826498511541
0.488185404084489
0.474390717939067
0.488526029832259
0.474388302068751
0.470159820164399
0.472404319394721
0.482173483823749
0.468347347408836
0.476860324284371
0.465218757452671
0.464560901278922
0.459051103668828
0.471161145784809
0.450570168675484
0.455658391273081
0.444949088386609
0.455183152096381
0.434381787189576
0.446270986408214
0.43343935099112
0.437021187388743
0.42519066062013
0.430231496268091
0.420524365963603
0.426779377013883
0.411412997190081
0.416211426431385
0.405294850938614
0.411299700634224
0.404632068119068
0.404302465987035
0.402812968860654
0.398886004883409
0.391057484892945
0.393073971028852
0.376822865579345
0.384835253554487
0.376257144990423
0.380779553673008
0.370217101214762
0.377786333169707
0.370609410564399
0.370346912971914
0.361051490346276
0.36441131633128
0.353126311025241
0.35744396070994
0.349059653925262
0.350166288222051
0.343791971500972
0.348752060218944
0.343064048141139
0.354761682024843
0.345158868244237
0.344808978665487
0.33405770640139
0.339027228142565
0.328824271350365
0.335217354278635
0.333682670979692
0.33126898638723
0.318514884817054
0.328476935384605
0.321219621738073
0.328864985894182
0.32006194014784
0.313301597708567
0.31139754351042
0.312382106429184
0.311643158423769
0.311911422932887
0.305869825336373
0.310610959686559
0.301751525463551
0.307579168955448
0.30333607492112
0.301289935665048
0.296728446645366
0.305018197249203
0.29786113793837
0.296229038533288
0.29477056975433
0.298949631651225
0.291848241450957
0.293815048704426
0.288212361328766
0.294543679611914
0.288940355200784
0.295485497281882
0.285265783446361
0.286598361295985
0.281798601138113
0.291889436585644
0.283850138379703
0.280139370079234
0.277068806968564
0.281963231910925
0.279515177374091
0.282713794215829
0.275010709758501
0.280974873016201
0.270640550008305
0.277882318971803
0.26888693341879
0.269341146324097
0.267672823602138
0.273479792958572
0.269157899480252
0.272313641783027
0.264705628313328
0.268836978711575
0.265024222925583
0.267170409181702
0.261722647367725
0.263664815656352
0.257441712042146
0.267130683807248
0.258883064868954
0.262796391298594
0.263751539862362
0.262009861505569
0.259752004133384
0.258066304631043
0.255443989551119
0.260934421003113
0.253665825659479
0.254242257748958
0.248273602979239
0.256190743663461
0.255011983451058
0.253255536386144
0.248257596875913
0.252168725938436
0.249058074682698
0.250443489586858
0.253192294472884
0.255629878543089
0.247024619013391
0.248038566227519
0.245603616083797
0.250567963767091
0.241765051977775
0.241345241854486
0.239015195375665
0.245712808829435
0.241933747311392
0.242956859274282
0.239000230294867
0.240725487201812
0.238402686606942
0.24276587661327
0.2391787525877
0.237305754940812
0.238747716200747
0.242577308989165
0.239114081313205
0.238016097775788
0.236041167465571
0.239917267466362
0.237823054280346
0.24029041174476
0.233060267285114
0.238457699201134
0.239313930644327
0.239286508588019
0.233432352059849
0.233627686383355
0.23492757748228
0.234073995501877
0.232099059139247
0.236648342588823
0.2292876322076
0.230289785243058
0.229050142370307
0.228599540344675
0.232150082886368
0.23475816285076
0.227433425493653
0.229761386962035
0.227642860463703
0.225187515085252
0.220619921222558
0.229993699791872
0.225501411635433
0.225173826370303
0.222977516547077
0.227914390664776
0.222385024357553
0.22555067973727
0.224263917210444
0.222854536444831
0.218089318917824
0.223558564925893
0.222510588252987
0.223596580029654
0.218161434810047
0.219189047719257
0.219062782285758
0.218372468400808
0.21485246802605
0.221191137624298
0.216954710935895
0.21583753559792
0.215487427354896
0.215984093085384
0.213751011609972
0.216151379607953
0.215192987294522
0.212572208228189
0.20590474595618
0.209747291853467
0.211694808715324
0.21252917184781
0.212892599933332
0.209984425948326
0.210404513554084
0.210331290138186
0.2065996623817
0.209854153254179
0.202969577449026
0.207803178524679
0.202368313971813
0.202153697083971
0.203374307061154
0.204098016441423
0.202799303113368
0.204381002050986
0.200475626234264
0.201220919391924
0.20180957791084
0.201629256182223
0.19503259160372
0.19997342967234
0.198808369762989
0.197711552035642
0.195157506267091
0.198380471404679
0.193987573358607
0.192974326664161
0.191967978334413
0.191980786775887
0.189506162585545
0.193996858359088
0.190851565954718
0.189402101394258
0.187825152733577
0.185727755426521
0.182343142937748
0.187677832237155
0.187351275003177
0.189045737585501
0.184421217179989
0.179007801955854
0.178766387168985
0.182543798848593
0.177298491779715
0.178843301177948
0.17695486142958
0.18091177467096
0.173842021552595
0.176029822064584
0.177893721175352
0.17373086007628
0.173596199727548
0.178675898674209
0.170480205747167
0.172692596370178
0.170842781248618
0.175863546186691
0.172022803147381
0.16933711527309
0.167708470334001
0.167513121921297
0.169978831463968
0.170393285116483
0.164925303642865
0.1681775691072
0.163801151497746
0.163039578237869
0.161835096628142
0.162339006381616
0.165081247682301
0.162505607610776
0.163586180569517
0.164033430089973
0.158329179616405
0.159580893688082
0.158578313659301
0.156656976980541
0.157412627028807
0.158948764521076
0.156377347666356
0.156875533947786
0.155144907752827
0.159448637076253
0.154380259410732
0.156341119646909
0.152752175345719
0.150798050785454
0.151403269661227
0.152099293133265
0.14812834997592
0.152799730790078
0.151846824577731
0.14900876107697
0.147667438377904
0.14890794222803
0.149122619930557
0.147969962905928
0.148074782482222
0.150655039316032
0.148926092712646
0.149383169539482
0.144581753917188
0.144010425575341
0.143782385079169
0.144647292306693
0.144575145269414
0.141970890315279
0.140694103230255
0.141209978538638
0.139471989106796
0.143866565015059
0.140188214265004
0.141634423619635
0.140786501704264
0.14101358874076
0.14090038879483
0.138978407470013
0.138979242500223
0.141192967988214
0.136181495383436
0.139089715968315
0.139169681804205
0.136463602710178
0.134213441351203
0.137146966896012
0.136480325452361
0.138511206283293
0.138962136051796
0.133785014665032
0.133077878494541
0.133524491767577
0.135788895650615
0.135621715715382
0.132776515765755
0.136696812816933
0.133410242761292
0.13036308740547
0.133369040526667
0.13757195621429
0.134434810689095
0.13152235186416
0.130709663881759
0.129642012766921
0.13241584512686
0.135780428126201
0.13133942067773
0.129051841350112
0.131146798852278
0.13022020954912
0.128012311951143
0.127592255437282
0.129421137907688
0.127134616473107
0.127611322406714
0.125625316469305
0.12753580690926
0.126434439970398
0.126701447686622
0.126945836839755
0.124174222828216
0.123524664350976
0.124436807189627
0.123434974661149
0.124028308874026
0.127378183289399
0.126026936196284
0.127848367934749
0.125364674752137
0.124599364652461
0.1198293831838
0.121555914508099
0.121991925908159
0.124834900765893
0.123669979238897
0.123055839852972
0.124888156357535
0.117198088970694
0.119008592922763
0.122126484011653
0.120912330086332
0.120140311856169
0.117943128474764
0.121547449005794
0.122368163029746
0.122745428252885
0.119461281726088
0.117141926121676
0.119831146811585
0.121499545653264
0.119739694774283
0.113212755490675
0.116904263266479
0.119500436223716
0.11577025399599
0.117799628295355
0.115982059022486
0.119363654569658
0.114880486196635
0.117028304227323
0.117401253248344
0.112722462211155
0.114052792490453
0.113470046802578
0.118929935587804
0.113382005348807
0.115517783556729
0.116299385652994
0.118319416523441
0.112500234668626
0.115225766655327
0.113810155913368
0.113203248845641
0.112030673478182
0.107839423026203
0.108169344382823
0.110941493824821
0.111270065899729
0.111089139757735
0.109594897710199
0.107882624598858
0.105130824559462
0.106981475397464
0.107214474355055
0.105385950661969
0.110180326142058
0.108954434357449
0.104385028899961
0.10476575584186
0.103447861765557
0.105647273626608
0.103269757267574
0.104098008498594
0.0991669746130697
0.100900080193085
0.103717903216966
0.104830061048377
0.102008020425459
0.101721125566141
0.0984893743887277
0.0999610041770869
0.0989080168958503
0.0996053752727617
0.097811538307033
0.0972710676534376
0.0985267960358919
0.0964870201727612
0.0975101466846748
0.0984886310326216
0.0968864612865913
0.0961846575755715
0.0956664625621579
0.0952013405715725
0.0972649281219767
0.0960842239567881
0.0932587787920558
0.0974836270921992
0.0912975513320416
0.0957296554889363
0.0901458652318396
0.0924252628737237
0.0921820898085064
0.0926508514759045
0.0918487075944989
0.0910502128407255
0.0916199859910427
0.0885924429001489
0.0882533555267458
0.0883603716431668
0.0869009776826755
0.0876637074152697
0.0876718414092324
0.0881061805393587
0.0900423215664922
0.0906353886515704
0.0866312569794897
0.0873438953482495
0.0850064735113954
0.0864613776204579
0.0854234287038083
0.0848148608259935
0.0852535473955421
0.0882936262697841
0.0825994992636708
0.0878055292617071
0.0822040041548176
0.0839597088390292
0.0813628039013927
0.0829149074614702
0.0801722453606614
0.0838697980279754
0.0818785671425485
0.0801115833803502
0.0802641527106964
0.0844650754562324
0.0794837147869364
0.0806049205159755
0.0781759045186603
0.0789843187956654
0.0793701198971633
0.0772267239399593
0.0777220484314032
0.0804397713991111
0.0780054531024988
0.0787126785796752
0.0761754244207297
0.0778459681708938
0.0753276970559308
0.0794400203452071
0.0754185863789489
0.0777909272438779
0.0742699055563211
0.0782916005310693
0.0738462873907043
0.0748812549184998
0.0754283075910322
0.0745707867192392
0.0726626009539366
0.0753101287289738
0.0706182414875791
0.074734196276316
0.0720021797110007
0.0759032605889218
0.0745373241095851
0.0760228984225187
0.0741332999927545
0.0742145293830254
0.067688729270449
0.0735479196917755
0.0698662364340541
0.0750988729161158
0.0657673963550043
0.0726874200545379
0.0662776505445722
0.0726251523299715
0.064936293277683
0.0730037446230479
0.0640040822421936
0.0732544383701548
0.0691801876839563
0.0713362225131382
0.0628495251891055
0.0687111228753204
0.0601431579192157
0.0738882153335434
0.0628594554876219
0.0707151428251177
0.0630305010995272
0.0703514516658759
0.0546004169517483
0.0693814345518732
0.0583893198002534
0.0681703037080173
0.0564540663174411
0.065799239830874
0.0603209995827509
0.0687669221292161
0.0596064118344589
0.0723754750892895
0.0560647034470677
0.070960388936802
0.0615956165687757
0.0717061553030857
0.0548103856833713
0.0695213563565081
0.0513229539871323
0.069395074970903
0.0534872297273796
0.0716361790656855
0.0522985999653005
0.0669021359445619
0.0510574072235035
0.0702108240091322
0.0514348524838178
0.0731392249906538
0.0541310726526941
0.0786814834318327
0.0549359711421942
0.0740801406362467
0.0471012187411009
0.067841203620028
0.0509485156734176
0.0739674884418856
0.0593277533808239
0.0687442869371117
0.0577024756338849
0.0643086833202851
0.062735875383307
0.0663017432997051
0.0694911444704238
0.0522648326624699
0.0768545851262234
0.0511464988092101
0.0814977754714014
0.0380784588298776
0.0847038185553597
0.0397226863247392
0.0827464319082057
0.0385555793174993
0.0846515611174267
0.0406464862012068
0.0752643394275784
0.0490318417228315
0.0701867282966345
0.0559891580235229
0.0658146249871403
0.0617767959686333
0.0613220257695823
0.0615198536590015
0.0617461383732321
0.0573453223603167
0.0618723453359049
0.0560540492744062
0.0665479164884762
0.0568799766138504
0.0655319263197891
0.055646216653167
0.0630026396328862
0.0573098980958696
0.0616340253209741
0.0613536034397266
0.062281831576496
0.0570383092969457
0.0592651904313486
0.0584656274546356
0.0609677478817858
0.0566855613095086
0.0633694924808182
0.0576967002116278
0.0611876518859664
0.0562801359407652
0.0619512766056459
0.0557118577349364
0.0596169546418827
0.0567737548320178
0.0598518135637071
0.0598399845017809
0.0622844093621004
0.0586668581316438
0.0618641802695685
0.0566478093415145
0.0616250866108577
0.0573940056268022
0.0633009026431631
0.05873785759717
0.0620543307985244
0.0570822077918449
0.0614922964875608
0.0585321095467858
0.061061534749662
0.0579981711987529
0.0606414543333854
0.0582256543028907
0.0605332900467857
0.058818515399444
0.05714751846868
0.0566103937452697
0.0602597741048888
0.0559064603710762
0.0585453751684963
0.058472721671919
0.0632084876620245
0.0595850171191897
0.0601178358324243
0.0577145404331374
0.0602916378133672
0.0577162320749908
0.0603118833768422
0.0591684529678443
0.0593528569950147
0.0561471438963999
0.0587793830723147
0.0589006787259669
0.0593221583054894
0.0576981005213978
0.0606411092771992
0.0607568842918977
0.0590443754710646
0.060348614099061
0.0575101597662813
0.0575793343598126
0.0585096795960433
0.0586166393822299
0.0592303111908611
0.0580270619073454
0.0618577657409426
0.0570654303876275
0.0577777994274261
0.0578336444380203
0.0613692323686895
0.0568791755619952
0.0604737232112094
0.0581047066460653
0.0583767252079751
0.0571754474988639
0.0614666964078318
0.0579299054610267
0.0611335079146448
0.0580214020659462
0.0580485898623681
0.0617396060369256
0.0606007829409947
0.0610534738561901
0.0604097981003903
0.0608007194731995
0.0615770538713589
0.0594765069646081
0.0598892770737992
0.0608089168197627
0.0624188685187136
0.0614786357693525
0.0600830999246248
0.0604434845155232
0.0611073332058572
0.0610201373543394
0.0612163930594219
0.0613385612637545
0.0613242592929143
0.0610514890328915
0.0587239649387073
0.0582967311302763
0.0618203690366371
0.0597916032356687
0.0616349543697496
0.0593258963272706
0.0607408181710747
0.0606738784427408
0.0602197671870107
0.0605511248486098
0.0613505673578022
0.0615417878947067
0.0614786095611608
0.0644021629815104
0.0614393038733672
0.0616123084942112
0.0624974167958207
0.0617824523600405
0.0618436809495423
0.0616110171109578
0.0599114385456162
0.0609971620026435
0.0611826455544119
0.0620774001179081
0.0641755703039086
0.0624331005010451
0.0637193773264926
0.0613760129551987
0.0614257571376671
0.0613735197954778
0.0629806780423534
0.0625654114513344
0.0624182288868593
0.0630086213073735
0.0604519977246427
0.061571942692971
0.0620347652496832
0.0619857312409458
0.0615402167489139
0.0650470849160901
0.0628910443169753
0.0648728558301115
0.0659649785320939
0.0642952732877695
0.0661618200524366
0.0623626967330104
0.0626805593017676
0.0617455155823042
0.0619787332581673
0.0642262827011739
0.0643646127866593
0.0625725522337132
0.0666635041542983
0.0640643625601882
0.0635182857563554
0.0627359220983268
0.0652681589541977
0.0646404288818085
0.0630781428039007
0.0649503143327735
0.0639516282985489
0.0630796655707302
0.0619394928041456
0.0648035096034672
0.0629779510910104
0.0628357173423052
0.0641770756688934
0.0622167962877317
0.0622565928113
0.0617041130270455
0.0635494275923064
0.0622011653557369
0.0621245507849024
0.061630076307553
0.0622278515499621
0.0608317279987951
0.0612549135287932
0.0610973656477148
0.0603245107392939
0.0618782801306712
0.0611593979752448
0.0598282626820328
0.0643450325108292
0.06208813612006
0.0616087781115355
0.0609579516742586
0.0572709597153422
0.0591617442864777
0.0628467999934107
0.0612586616073953
0.0606308733162768
0.0610561383802946
0.0599119468185481
0.0613528593891698
0.0617916921520504
0.0613474486589453
0.0611917440671202
0.06230731435766
0.0616963615872081
0.0593096890544936
0.0609909565234209
0.0607589969786936
0.0604365969296389
0.0599911883361077
0.06031742728391
0.0605877626875379
0.0575903277100188
0.0569238178480552
0.0590354210839033
0.0599600726719284
0.057534518886898
0.0597916563604585
0.059401392105052
0.0605798501206513
0.0587774231484771
0.0586958028436542
0.0565394521904364
0.0586876430309772
0.0582946981339426
0.05942052743593
0.0581753749762319
0.0592668816940751
0.056110377242205
0.0577838417417369
0.0569422776269748
0.059787293546044
0.058406362182239
0.058707642545445
0.0547085539235761
0.0567751407538355
0.0592049867938962
0.0570117030268106
0.0600095280489353
0.0577845558493775
0.0583280465348176
0.0565806727628689
0.0570957878310187
0.0593729812145005
0.0575001569851292
0.0585258011760537
0.0564931622506152
0.0590457680404993
0.0551225077738738
0.0577069210393161
0.0571261808671822
0.0572312734767576
0.0549585636676284
0.0612747865473592
0.0562374617520874
0.0566826813959843
0.0572660991741389
0.0566873853920554
0.0586950088264486
0.0583340490179973
0.0557141668847852
0.0567782775571692
0.0558730035716096
0.0566274429793475
0.0577548299028277
0.0563877501991222
0.0559660368030769
0.0563149091591508
0.0557560996844048
0.0584726065314649
0.0554318360343371
0.0550856036028461
0.0557334186958998
0.0565389409980079
0.0549779106637962
0.0562897763048462
0.0552855840659965
0.0547422621757478
0.057948695746987
0.0574959474182789
0.0569286129235898
0.0556568837852113
0.0540712495650503
0.0552650345553562
0.0539884188959458
0.0534170988493831
0.0543094370903395
0.0534950911644831
0.054015729442418
0.055545976767559
0.0542726051823922
0.0540105924530754
0.0524587337320284
0.0530326219591176
0.0532561279426603
0.05293621332791
0.0520843422630652
0.0533313143167877
0.0510944818615055
0.0519351350494907
0.0504564121708362
0.050365064103141
0.0503044685805561
0.0525695404964149
0.0520003535983649
0.055248003100983
0.0486590362801138
0.0517376896796505
0.0511051672088367
0.0501548732566297
0.0511895863170405
0.0507462985206363
0.050368796841926
0.0524929025527102
0.0499596080243953
0.0482937623682745
0.0476355474709487
0.0503920058626689
0.0452047057707833
0.0493969970074286
0.0469068313967496
0.0490560703208913
0.0484900813419633
0.0496064102141503
0.0476458377587376
0.0463870679160406
0.0455625428672988
0.0493729531138391
0.0470756473001993
0.0514155413897769
0.045559274411266
0.050290254176518
0.0471917428744358
0.0469032352384662
0.047788138456796
0.0485343911403769
0.0473354021486364
0.0449612840591814
0.0483225283335427
0.0466789950618675
0.045194050716782
0.0450306805185632
0.0463953585917753
0.046106423783339
0.0455515937281113
0.0431401553419965
0.0449142514670964
0.047888013061034
0.045943469924464
0.0471063763303369
0.0443881673376681
0.0476935223275357
0.0469344593295882
0.0435294224327898
0.0480156112181812
0.0434738453327308
0.0454674004049012
0.046201977149633
0.047680626079955
0.0454290302530853
0.0460749074949407
0.045193291674044
0.0447078136632572
0.045005159699886
0.0473168463673655
0.0454648257984229
0.0447664046702808
0.0452472304667742
0.0449174621296375
0.047871234732818
0.0449556132739952
0.0453404722116602
0.0439719466886519
0.0459432825619123
0.0445154389656458
0.0423866145780693
0.0443568564402768
0.0430405891874376
0.0464676202336607
0.0439132509368308
0.0445837776945848
0.0434617666519523
0.0475149841112637
0.0442419662490667
0.0459626010305852
0.052439193712781
0.0391295182827351
0.0468263817687581
0.0405960385930118
0.0465033712349709
0.0419236302473277
0.0458844244414504
0.0427838413387818
0.0461370329625778
0.0407325498650595
0.042643526958581
0.0396453553082778
0.0422839092270656
0.0416504836584802
0.0463825287687127
0.0428226567292859
0.0434277859129195
0.0401212762598962
0.0441352630959098
0.0405367214665498
0.0434277640554726
0.0459888323282953
0.0444282348923997
0.0401314976465846
0.0466291660706272
0.0348140942893547
0.0524709804553526
0.0384987764389503
0.0451856835686246
0.0405442889809435
0.0422308190569678
0.0419017041130008
0.044738558787725
0.0405822041425872
0.0452665896216243
0.0469965098125297
0.0405873653771132
0.0455090047954541
0.0396710110355136
0.0422328820316831
0.0418027738930222
0.0440165940656042
0.042535380001176
0.0410577807500368
0.0431786492343239
0.0393430978331085
0.0432678718064188
0.0415477165569463
0.0439096036038277
0.0428862444312355
0.0433311634685176
0.0422369909048173
0.0413440208347322
0.0396794702482517
0.0407759234801532
0.0423878684318925
0.0439455541009573
0.0514337354344644
0.0363642634002187
0.0464402966646268
0.0386443018166245
0.0461530966509502
0.0434872439249862
0.0441169262518828
0.0422999934411329
0.0418455735782239
0.0416869712661157
0.0440266738954615
0.0420296581205506
0.0409871518821959
0.0420875290991974
0.0431060833403521
0.0433824823664722
0.0406426577882204
0.0435113148998335
0.0406408168681274
0.0442148710262396
0.0401129546441561
0.0483876552115849
0.0459120831408225
0.0414057418390594
0.0463572726614931
0.0392270364734846
0.0434788875888835
0.0409188954462812
0.044606934561987
0.0399177729074629
0.0445790983155025
0.0412886644532498
0.044401119570706
0.0410608464011135
0.043097785970503
0.0404855051299625
0.0459492446154521
0.0398090200416635
0.0456823097360048
0.0410705801752974
0.0462640803966241
0.0400734966152305
0.04545908569347
0.037568802528698
0.0503969777693713
0.0393854684029743
0.0477729315189612
0.0367729118845338
0.0540926063707928
0.0497585076051772
0.0379674210334868
0.0506929789241378
0.0396425337411431
0.047942956033368
0.0427410323985397
0.0459013797258248
0.0453390758656948
0.0440417249793237
0.0439208777040326
0.0449286606481409
0.0397344491952659
0.0445307483071767
0.0429492573575177
0.0464083012829008
0.054926524777797
0.0425505111872515
0.0458238120922974
0.0461668438259331
0.0380262345123454
0.0602361767976705
0.0406771872250418
0.0485728191168242
0.042933591957435
0.0453450634029018
0.0464150855518638
0.0469428450338179
0.0446358258123658
0.0483059278651778
0.0452858026179846
0.0440554444962593
0.0481778839504892
0.0438904585963169
0.0473635319782695
0.045684748611719
0.0482726327922072
0.0514928133739658
0.044124983225147
0.0506747320742364
0.0498146032712418
0.04805754812844
0.0462545394802089
0.0471968688527462
0.047107670714943
0.0465718280941046
0.056388218612911
0.0486747240444364
0.0532346013838029
0.0508406521486456
0.0473673219547088
0.0518149710149798
0.0493348954547424
0.0528850756998587
0.0501466113910181
0.0427520996845396
0.0686002511203876
0.0406411581737388
0.0666676434330166
0.0431711042088617
0.0581161752020246
0.0431195149826272
0.0592892373992036
0.0425340364356872
0.0588847848745746
0.0477355665457851
0.0552703703803856
0.0520818998635982
0.0536854968682827
0.056594797262432
0.0507936380651757
0.0556078910420331
0.0521394653754748
0.0537855881469701
0.0545056343729077
0.0594430562782817
0.046534590163203
0.0752016218874652
0.0526866628646036
0.0547020076094134
0.0612751796044852
0.0511863027862896
0.0736974095009537
0.053707592193547
0.0596685084366953
0.0577846451182712
0.0578747373397896
0.0612535442296865
0.0518620250738429
0.0732049765220678
0.0616408626364219
0.0559204398874039
0.0651813151588034
0.0552334076113617
0.070439959842654
0.0621449914033496
0.0623256422127578
0.0606548277098489
0.0686918157568691
0.0598919929272083
0.069932690643963
0.0778891359037268
0.0595594458698441
0.0875807034087926
0.0610578478192584
0.0803569356442056
0.0634617932765426
0.0739087926331121
0.0675792198780085
0.0799566314352175
0.0665578787578227
0.0789577455826263
0.0671259145319657
0.091224784860488
0.0648043047357971
0.0834911866330639
0.075746378671969
0.0828777974035198
0.0860725285263571
0.102878435831135
0.0821855944848335
0.0907265706887553
0.0781910122567463
0.098434562810931
0.0873343424842615
0.0893056496376913
0.090030878433079
0.0903491802610873
0.0936666049784077
0.0924798158088362
0.0968674517794047
0.0960716320994516
0.0901475824778224
0.102805360768147
0.0945369315210373
0.118545802803541
0.101545790211209
0.126380038979623
0.0998273038805313
0.115205133277857
0.10356526345259
0.107893516460256
0.109062503990269
0.105558382454018
0.113028647048737
0.111602517019806
0.115175142399351
0.11612714066803
0.118132542646434
0.132030869355787
0.114120497353923
0.143479989569383
0.11441369068947
0.144360738639052
0.111932895166493
0.199794265670427
0.144364611351889
0.146160174471803
0.16123583115714
0.144892883793754
0.189938241601969
0.165035507331679
0.17422462764245
0.179134714684008
0.184631305720075
0.191944803949804
0.203203422572227
0.20216816557085
0.213004298211798
0.217204643674916
0.221904451085746
0.232212531536892
0.260314671501258
0.240379027453344
0.253303926113209
0.250455755389692
0.274846847980782
0.279673623597381
0.277398534255098
0.282425029556267
0.304944445889707
0.284660385652121
0.350009883219487
0.30837646596464
0.334135138975045
0.325505074901709
0.355523824969514
0.348559313458399
0.35789579394032
0.376856055491201
0.360163791293033
0.385035690367214
0.372489180881243
0.400611788325589
0.394859033767917
0.427191615120364
0.411375665310441
0.414193691006163
0.422819720938539
0.427706474038337
0.440964251558471
0.437469224947738
0.444385479341561
0.449116891872076
0.476746126481311
0.500898846754157
0.473871482798666
0.468797384831377
0.445063023406206
0.468359420421891
0.440558091709419
0.486133411424384
0.462123611873274
0.461842568170722
0.471875473169788
0.448983403439994
0.463836552864792
0.461837162004145
0.464150226977497
0.454349807810876
0.463970714880078
0.465911563331542
0.466119541642513
0.475462849275769
0.43676104143556
0.5262916692903
0.447861785002377
0.466553610979687
0.456620567918414
0.468469957661554
0.454378529951084
0.464099832067689
0.442295783089832
0.470705143486738
0.434208363482537
0.441452078505725
0.433732263352697
0.432350157939168
0.439240612429419
0.416151947705835
0.415828873703425
0.410388892863972
0.401484987142391
0.40832033305679
0.389863312033371
0.430062569171005
0.380537141609576
0.383505209924217
0.381809081007441
0.374886254716814
0.36845082823971
0.37325376208826
0.367829060101995
0.365436638752004
0.359782536353914
0.359924524060043
0.349063302437626
0.354669961078918
0.3553643522555
0.350755362363777
0.350698252445872
0.343955007244136
0.345101275146638
0.343694319733106
0.343125503631322
0.342944901054606
0.340402488740021
0.339712420291318
0.339447844518125
0.341849676531572
0.339052416214173
0.33323187597057
0.33617563721325
0.336267171362075
0.337613463935906
0.329166470836997
0.333406356421195
0.334544932079311
0.333418368798737
0.326786322479497
0.330386526809765
0.330339836722846
0.332520547421941
0.326072766368147
0.328493266879376
0.324818627978166
0.323703755303489
0.328913035432022
0.33630484457489
0.345946539647741
0.313729973102014
0.336224438313759
0.316844044208666
0.324493467905907
0.321124805837231
0.337060912668096
0.334626562960134
0.310588014267062
0.311717477338178
0.313165667626358
0.311644861616089
0.322087377267657
0.308112856241172
0.312235121936011
0.317700599225897
0.312997991987273
0.364762092837226
0.29893764830343
0.356284152329713
0.305950076755802
0.315927048616691
0.306690826520935
0.324305979915021
0.306262238210873
0.30986297945996
0.319513201646492
0.300575714681411
0.317641396604975
0.302684192686924
0.312371351760302
0.309079590430811
0.30591082923597
0.312342412069094
0.308530035850468
0.304400022995874
0.325339377765917
0.30800871711903
0.310698592489249
0.326140881686618
0.298550891196348
0.290426797610881
0.284761807906068
0.291609129733261
0.286680109225893
0.284968315285143
0.290313835059823
0.275794577184068
0.284374668558608
0.267267891439069
0.282269531420524
0.269804014213511
0.280704911440385
0.260878549542213
0.267031481106037
0.266288127709502
0.254127241844958
0.278991439551481
0.257006632439427
0.275095287745628
0.246660690243738
0.260142315193639
0.251599736350976
0.270945455093126
0.253211259196216
0.243999104422773
0.246511569536505
0.240771199491629
0.241639102598303
0.239467078951493
0.229901521183291
0.24615073234301
0.234136883115461
0.252882183271572
0.246761003343786
0.230621793018405
0.223464343068039
0.220482923407884
0.220464519354824
0.219437184918942
0.209770283214985
0.22399452929543
0.201890824540477
0.232573144894069
0.208747102170876
0.225796873642386
0.219507477316485
0.213103400760375
0.216788467780302
0.221041911903938
0.221088077915066
0.238485751409043
0.220360236545928
0.236201470327965
0.215474083264344
0.237163636172973
0.233017310371017
0.236430548351819
0.236888202005439
0.239811829293162
0.241012863426508
0.254699908955029
0.256799641920094
0.26236606118185
0.264505072611644
0.278867235719736
0.273860913612862
0.289645983309594
0.283306379201164
0.285107331299196
0.322607454834967
0.299846693599166
0.329644859145875
0.31228694552279
0.321630304192494
0.330661446662206
0.329198376486558
0.337710538807524
0.34083443790124
0.355619203279638
0.35354434881384
0.35271754334506
0.358593160753037
0.36194057937071
0.375737978055
0.372757862942482
0.406329421897391
0.364411377114245
0.407539084341777
0.384846709829689
0.395517863943404
0.389188128985561
0.388857407056613
0.403023096844203
0.394320768303177
0.400244360968052
0.397517446221975
0.409778123058904
0.406994270070579
0.405207707571158
0.413672694647079
0.407386071213827
0.415842767860465
0.41211275243197
0.415447192416874
0.422465915901797
0.42185357377647
0.428578902411875
0.429876579834039
0.454602390752363
0.452897753732118
0.426258409506942
0.448168265200015
0.438301363643667
0.450244810401997
0.451911368517345
0.46142892911746
0.46122075724192
0.455630208814257
0.459231279844815
0.46477217089359
0.465551838859642
0.474706510889227
0.464422838527925
0.480692466703665
0.465217494153111
0.492527979280474
0.47533975755496
0.508060272095519
0.487225387013836
0.485763272204432
0.498007643933046
0.492142138203725
0.494255902377882
0.494176929531254
0.500155713677798
0.498888684640011
0.501140239145278
0.497571275134752
0.504813330664149
0.491924816647122
0.494042610379394
0.500079055166547
0.508207678004473
0.502018150377394
0.490816686388076
0.496247348179832
0.499460943238339
0.508301599516687
0.508041132966634
0.505711364544063
0.49660111218397
0.494474479624948
0.496728695845036
0.506727995794942
0.493758789816523
0.489820080001934
0.492036432150045
0.493172978470432
0.495971184168248
0.503850944234153
0.495839138520079
0.509360823765397
0.501210873127963
0.492789207256035
0.506205645628559
0.504659106910325
0.509370079221829
0.504423288291322
0.512316005654152
0.509994535654603
0.518849534493264
0.518318292616131
0.517460717085363
0.517386143456317
0.526135187173871
0.521295636843844
0.518125309430737
0.515718730111588
0.510466572916523
0.51059612553426
0.51244635436713
0.513987075426469
0.505806114511807
0.501787362327701
0.504182954793895
0.493697900577141
0.504491517623465
0.496406710643274
0.489988311722639
0.482283720993135
0.481267936658852
0.472926017291821
0.471329299276278
0.465002100265121
0.46427506310205
0.461576517894074
0.461972586499972
0.455685163433347
0.452701852628183
0.45186196738896
0.452248602677764
0.450826195883176
0.449203704277549
0.449796977267402
0.447020775194631
0.4480521921843
0.44995356182613
0.446570807117592
0.44765444746792
0.43913431402523
0.44427181161792
0.445171410367958
0.456682995641993
0.442124368537138
0.448823701260798
0.444860359163284
0.442471300743636
0.44145761310891
0.440211628606824
0.442622319737335
0.439887646336972
0.442855549573365
0.440051156175584
0.439812814213216
0.439469124745616
0.441862452937745
0.435240119575026
0.437081773688256
0.436345878977374
0.442521802936955
0.434825301694739
0.435920874326238
0.436963182171428
0.434715158054275
0.432372631181032
0.436583104577111
0.435296557629547
0.434992184305528
0.439207524411615
0.43667768661006
0.439000846768485
0.435210336941384
0.434512086217823
0.429353895760503
0.434967501418672
0.435197717982667
0.435655238853424
0.43356112182237
0.434402129326486
0.432110895239662
0.427909723948645
0.423555666583138
0.427445053009221
0.420431737189979
0.417873623923884
0.413826627793168
0.411822976562501
0.410194784242941
0.407615059769777
0.404863030976018
0.404019801548163
0.398851835989778
0.39126456483289
0.389988492917856
0.392942515574319
0.385738755865401
0.38823049042949
0.382640009368818
0.379628371740582
0.37910590387085
0.378446723819893
0.379961491750687
0.377178478860769
0.374686805977139
0.37772721753008
0.374039487517316
0.375644484182733
0.37485509004163
0.370624949926191
0.373792655058651
0.37782130644785
0.377846709415902
0.379254322060413
0.379587943810104
0.381747602383912
0.380903425419104
0.385710166638917
0.383683132169567
0.384954597468943
0.387937461197671
0.38986988479374
0.388798914803705
0.397144951431306
0.39673511468093
0.394781253617114
0.397679410689722
0.400921613422636
0.400274487513061
0.398747702165244
0.397303602987628
0.401096907438141
0.402732361833938
0.400007975459656
0.401030416746504
0.399740871311092
0.400001707929818
0.39677948576726
0.397041061730948
0.397520177320649
0.398284524338212
0.394347042643818
0.396626276453322
0.394974102248966
0.388561953650477
0.393870976772319
0.392359343194768
0.390213398739096
0.39122681437246
0.388777189623236
0.385936404965273
0.383638515338885
0.384732789325166
0.384353669557042
0.382504180119396
0.381116722832121
0.380351507434405
0.379654625453465
0.377989431786628
0.376111659829942
0.374158151442027
0.375251432768991
0.371045673055717
0.372193551632564
0.366541874802417
0.37209346861436
0.370486173026054
0.364159055651593
0.366196315038612
0.361518606014724
0.359527940851358
0.360900800322914
0.355980031571256
0.353554836564318
0.35552445849738
0.353008353358149
0.348069962356123
0.346648623007788
0.344073090166924
0.342284443126132
0.340081579051853
0.335546390356634
0.333534362226349
0.332343252036552
0.329463297843839
0.327293636177156
0.328475882541779
0.327589040630601
0.325400867582808
0.323087112080718
0.323223236306021
0.322787072311858
0.324746701575615
0.321176386939375
0.319208094186281
0.318193890311116
0.31741301765375
0.317291018850427
0.313213902257897
0.308446963672701
0.304923519620485
0.303961387601004
0.297862642725553
0.29530729335486
0.288824909777067
0.290035227332751
0.285416392991425
0.285593162596735
0.284356154209679
0.285975294406675
0.289754388443255
0.293561154731107
0.296123957992622
0.302836373890143
0.308959289744745
0.318735057637991
0.328026461468081
0.338239330647516
0.347915339230187
0.363553099382004
0.374788652080974
0.391261656881976
0.404175528587084
0.420608520997694
0.435459275719845
0.451983014517607
0.459585773283339
0.478377156292344
0.495348743501558
0.507059445077482
0.520847561168934
0.537456933142579
0.549043390144922
0.564633562328638
0.57878557617777
0.58956703414529
0.599919557508172
0.611128410444486
0.622921960941792
0.631621674241689
0.643684384125607
0.65125333569569
0.653561333894285
0.668625152865495
0.673055111726326
0.681779592117267
0.68206053505892
0.686678217217037
0.683331861381673
0.693483091438168
0.686193245451325
0.686986958667587
0.691179594066222
0.692358492717711
0.684686575047292
0.688107478891643
0.683389268822648
0.687523282146476
0.694394764961065
0.685998881912066
0.694359973875249
0.696685868367458
0.703039272106474
0.703929314972735
0.709145697245525
0.708904281442185
0.715438333391137
0.722193083213236
0.737492501431338
0.73849051638224
0.74344399223485
0.747796571307665
0.75524749700562
0.768168812828022
0.78186968206576
0.798832186445201
0.795946617730705
0.805745729748807
0.817609513877258
0.825335870959542
0.835871316312374
0.839266211987096
0.851917242545941
0.852601105308095
0.85535121176665
0.858242418945404
0.862213835509308
0.860054988791237
0.853962257242794
0.858004900986722
0.852008781075343
0.857416702336408
0.854968653434
0.842293135544941
0.853817694434129
0.866720570750483
0.868317890807939
0.875043586695981
0.879149832709137
0.904335731402124
0.903135686961038
0.919860636373273
0.923607973469776
0.940574386718105
0.955714311631985
0.977947351301586
0.980287206860087
0.994845453348086
1.01042509538856
1.03401591321999
1.04960608025773
1.06580489762824
1.08388785379168
1.08856267038627
1.10653992034198
1.11612634843643
1.14906697712695
1.14514993229044
1.18004968311351
1.18938917060041
1.21145706399152
1.22762323610312
1.26839236854306
1.30685141815139
1.32458663901169
1.32078823709954
1.31245005748188
1.3479356230259
1.38183019977347
1.37858613886162
1.37403181450585
1.39055766232917
1.38929978181856
1.39810085972939
1.41833773758204
1.38849016838564
1.41407503349302
1.41585500070964
1.3954963535147
1.37643422686125
1.35234441087825
1.36241929434437
1.40405102834152
1.39582703245158
1.38477945936726
1.36414164793801
1.3840872203259
1.3986812997552
1.38840659918568
1.40038167477959
1.4511362828563
1.42655961996521
1.46819321322975
1.45610351637141
1.47386981025387
1.48086089914643
1.47969506900406
1.46699699687082
1.55919015173749
1.48692620805748
1.58627978600131
1.54696550922542
1.55677676509888
1.59872060633354
1.55896899623585
1.60637477580017
1.58176263805293
1.56251590301357
1.628030034148
1.56985453996698
1.58353255794973
1.61031795810271
1.60793900907582
1.59795582946672
1.61152800596057
1.65179309359346
1.61368392453201
1.62678721294492
1.63644488496922
1.61975763542289
1.66637564837359
1.6241859801979
1.59294817263423
1.60007328908428
1.6076993727715
1.62599492830764
1.65094421261096
1.56543833615204
1.60890843088687
1.65423232040132
1.55931299351599
1.51870583349018
1.50359222212294
1.42911202095071
1.39665038450437
1.35700632299322
1.37662964186062
1.33383607471462
1.27999456792771
1.23127682913711
1.20057458089325
1.16649957261737
1.12034758373814
1.11497047373387
1.08242790037032
1.05314597267833
1.04534793361905
1.02769771904048
1.01137864892168
1.00638663741622
1.00785980523667
0.987402526491313
0.97735406030287
0.955926573109127
0.952196188608513
0.95434329809125
0.95181879504361
0.909251294735755
0.902840520303977
0.887801366274682
0.874991809623452
0.865815313891858
0.842007628895627
0.814853654720364
0.794475354829548
0.779882512903658
0.753670511836307
0.727621858145462
0.710529402533243
0.685737737026998
0.660339975420994
0.63348966026467
0.606257494798465
0.574453237046816
0.55228436979403
0.528730117309116
0.5067232477818
0.484670996221608
0.467330878972172
0.442770888733889
0.428906813289615
0.412543656666182
0.392637683287928
0.388331977647183
0.375255389028113
0.360905375721902
0.354271739932924
0.341352880594188
0.336786016882971
0.327417374948737
0.32625460326252
0.315658816503551
0.317405759380757
0.312241096484548
0.312114050030466
0.307435335750191
0.312218249881712
0.308667819296244
0.311546423973777
0.310980727168906
0.310867148462149
0.309511062600228
0.317438235782949
0.3148181936506
0.317746932916418
0.320578120170377
0.321040845708257
0.319517959819933
0.321319415410608
0.316076964920518
0.316023664954674
0.312963563745448
0.313516816412393
0.308082658062637
0.312538067259942
0.306547340712901
0.3073851382539
0.306951295312571
0.298725359083358
0.305583872734942
0.305031069548939
0.305299739027044
0.307343278469535
0.308234576252399
0.310310169472148
0.309867913184278
0.31449421789594
0.314160360710537
0.323026869797055
0.320597186645342
0.317789133132911
0.322756508919056
0.325294683619653
0.327792536300462
0.329454625108831
0.330136267599494
0.331486530308785
0.331326642534046
0.332583485011619
0.33160467376881
0.335773014415902
0.330151877665629
0.331354191542251
0.332077758100897
0.339928316711305
0.336519415706816
0.332869641283384
0.34105587312946
0.338524596295925
0.343917693404478
0.349211947304911
0.358591136885
0.361628340966312
0.369651516354371
0.366263996314502
0.38442373483564
0.403040810748516
0.408816583817796
0.414284246754651
0.419283310190443
0.426554486429218
0.433607876546564
0.435597189351413
0.439860876527006
0.435704033404275
0.434251215159432
0.430287650379938
0.415851670602822
0.416920160589404
0.405595494723211
0.395055310783489
0.401867334952281
0.388306943728128
0.384994647800251
0.384708976326549
0.386386485132353
0.38284976018803
0.379508760282497
0.381023222400057
0.386758182841698
0.388488939481886
0.393302462159427
0.387713802373682
0.38272072934083
0.383723847149029
0.373794734427897
0.374705083174141
0.377065700593062
0.364788947091522
0.357648531088183
0.36200174419079
0.351534257211187
0.352672691056517
0.341790804000522
0.350784851784314
0.339883688962194
0.349397778609929
0.344756950556478
0.346986357607569
0.339858225718755
0.350204771965486
0.338916246630115
0.330688438517575
0.331956375792488
0.330767954648435
0.332320133141628
0.332509600012935
0.329325485440139
0.326546789243588
0.31873460939214
0.317944518597051
0.317891252383674
0.322651392072108
0.319545165260204
0.313013741026286
0.316050422176903
0.321553826856204
0.307893594344395
0.312607051536936
0.310015948942504
0.304639925748319
0.303974153518318
0.307871799873424
0.30038553462556
0.300318964479501
0.297932332471996
0.293157922209563
0.30457403066879
0.289403732037651
0.298226558897254
0.29134515548189
0.280027443801548
0.281655133736367
0.297034482769267
0.298909108893311
0.281324075596058
0.292925207355075
0.293299452636556
0.296162011591565
0.301912600286348
0.295702726618255
0.292894511069824
0.302917816847523
0.296446865847043
0.296649378752766
0.294658516058475
0.305102766680355
0.312328381458496
0.322198899909749
0.318904837482733
0.319888452219411
0.297593715453311
0.319070009886592
0.328383132502186
0.326000293300589
0.326830741404952
0.323832960261452
0.329551715186756
0.332897896906862
0.344914474563513
0.342445446867516
0.354697374610671
0.366980730026815
0.356309357989228
0.363239033447777
0.386039097586127
0.392228158071458
0.388426535362864
0.41683795078519
0.423755659878835
0.437600776043094
0.434303322491651
0.478917673991232
0.455244737139914
0.476379910226796
0.492427626952028
0.495006820262827
0.496511508211826
0.51164675806133
0.516731632218975
0.526002970815671
0.527082577863344
0.513159589433559
0.515193827575015
0.551614335982323
0.518692143362491
0.525263093245107
0.519309660444495
0.504569488445977
0.513213497556446
0.504638348429275
0.498260777627538
0.504400794233058
0.499106428514382
0.480110576763365
0.496556367179298
0.506543431780892
0.493406351695572
0.493011111926589
0.491385055408119
0.528908347656134
0.479438263622953
0.484181499741868
0.483917893261251
0.474216394434619
0.462649103425359
0.471695485050093
0.450352728132101
0.468438265082243
0.469002893987486
0.44224103983033
0.4474726128261
0.450930177550369
0.449771292907273
0.458382014757014
0.441265568503336
0.459714663340949
0.443663441377962
0.444466135076935
0.442882545437045
0.474469215892781
0.435939690323799
0.465623781793754
0.452098148745489
0.462764537188642
0.439328340952833
0.466945000248854
0.445458200549331
0.472374199856135
0.426437236452529
0.445102477480145
0.451945065615853
0.452902994557144
0.450152627031038
0.498730490062684
0.439551520273052
0.48265489193921
0.483037524296451
0.469076432019878
0.483441885972044
0.509365172244406
0.470392691983216
0.459680145144213
0.460657353229663
0.514785834447158
0.506128026847799
0.531710360724906
0.504067819305035
0.517149268420658
0.498449152492544
0.542489156009673
0.51839188092075
0.562579449137741
0.543751675627319
0.586280607451822
0.57370886689828
0.57087132525087
0.554881254359814
0.626185934980676
0.546572877189996
0.646776312946582
0.62933459997465
0.685508290263972
0.654782831450469
0.629923921238326
0.609063797048111
0.570696101921281
0.567444387969814
0.703703350852363
0.629292540870346
0.652037424146762
0.581648303852656
0.644785023926697
0.6633005992078
0.635096887957779
0.621794403362879
0.585626779421752
0.635769727884488
0.624361308757551
0.523533822904691
0.568310785244559
0.560279544136879
0.549471333807287
0.565767635164526
0.657947743449828
0.535297632708085
0.643352233833046
0.642042570059265
0.616603492234325
0.515873972055895
0.562401750918585
0.616053584931851
0.640446976736085
0.639865246512851
0.645249238623789
0.576481633551691
0.496755075153917
0.663385703521826
0.735720444525302
0.624494060689387
0.694967267057157
0.48060923036738
0.560920138095509
0.697085379707883
0.57847348043512
0.432376412828225
0.645390044761657
0.638409542708477
0.909417064977899
0.550840029849052
0.651339684858841
0.507956180268731
0.59024885761776
0.582102180918358
0.737308071875847
0.645206636831677
0.889013114848918
1.08758534464807
0.708053379048205
0.641671399174744
1.04466429781683
0.47515370378176
0.594180953903383
0.481890587382155
