3596
4000.36533379555
650.420452594757
1
2
2
0.0477761277285114
0.037416659721704
0.0484214471398152
0.0318701292554248
0.0496632548219844
0.0276080498228169
0.0445927194242358
0.0352858158656481
0.0427645748668163
0.0244180256217663
0.0429929562098031
0.0353296100391786
0.0473302420324785
0.0292103370815119
0.0408999015755543
0.030641805751076
0.0456388852504323
0.0367585769201392
0.0491073912487904
0.0383561890707459
0.0521469207972227
0.0315778605582921
0.0580384585275484
0.0314220723669839
0.0424981202537705
0.0258616574525641
0.0454193331111193
0.0325236549316737
0.0488130622646156
0.034830978727678
0.0485667182007431
0.0339878531509926
0.0359268710624372
0.0369374065524458
0.045452296336029
0.0332674893046739
0.0410060577506723
0.0321952043592343
0.0525495856113225
0.0336521459553677
0.0510482468032774
0.0338854979963144
0.0392727023150056
0.0333825655175016
0.0433446451776265
0.0296215343107095
0.0440701463638112
0.032884487565192
0.0475037353676605
0.0279432527070257
0.0470286562898593
0.0286290664520365
0.0483227910132219
0.039946437949849
0.0341201358495138
0.0339804775836634
0.0421611140850146
0.0268684176528508
0.0417364852724483
0.034601214795567
0.0429018873639675
0.0380014277191086
0.042635764898519
0.0324149583898748
0.0402441882833371
0.0286412241002494
0.0378959261114553
0.0334404097061941
0.0369579298246852
0.0346922929387303
0.042212348104805
0.0339395616755581
0.051449709372791
0.025855761181974
0.0519740646386581
0.0328111868859522
0.0365869530152502
0.0295050200907868
0.0382349693937826
0.0192736713337042
0.051979699770147
0.021740502560538
0.0511649776142004
0.0245788310659884
0.0293422071702111
0.033294535969382
0.0441035904063196
0.0172318942680524
0.0606166339213295
0.0228267702413794
0.0405290166295265
0.0253187149478076
0.0379235957456193
0.0297062203610071
0.0424580925797027
0.0323727323478922
0.0449935652201113
0.0243759355033327
0.049450765881775
0.0211681229850524
0.0566519217078817
0.0108237073436863
0.0697527317959855
0.0174277460891143
0.0511371183805427
0.0443446056219215
0.0247003501119596
0.0481091177597962
0.0349969331388171
0.0368958903128385
0.0392943009788955
0.0285515546556541
0.0275102243100463
0.0244020181958035
0.0448076321126486
0.0293414621130791
0.0462025242461709
0.0207802274183934
0.0346322579587829
0.0213790402514779
0.0451903371674413
0.0121885369036063
0.0641580672509342
0.0152541081908838
0.0372497305315084
0.0277591404620859
0.0408949319054746
0.022712163062356
0.0509607537648595
0.0160499441771641
0.0405594829813263
0.0190627082096816
0.0463531572163073
0.0117559538884276
0.0704119755590942
0.0223244051322363
0.0408532817225487
0.0282806382018251
0.03351293412775
0.0245120169513983
0.0345553534733764
0.0264885620015167
0.0416390231332697
0.0234143621947393
0.0502573795830806
0.0172005969232602
0.0456267620020518
0.0301117092491765
0.0422835812719412
0.00961732328207588
0.0353773099741562
0.0271325076979103
0.041292892085627
0.0286034971673892
0.0462170438054222
-0.020732882357384
0.0916091237321634
-0.00283715214234592
0.0721330411763234
0.0204944709829101
0.0424808590041564
0.0215261141574359
0.0330890533371841
0.0301572596819816
0.0308917348600985
0.0348459357993581
0.0395253689746592
0.0368258263435646
0.0383542772430753
0.0403400009347825
0.0420253593811675
0.0358537318383718
0.0445769681310624
0.017093124331337
0.0433420061627882
0.00440831622977493
0.0550930972482355
0.0197904077308617
0.0445234460112549
0.0132821372004108
0.0472222662812145
0.0196814482971776
0.032920709338464
0.020371695512794
0.0448183674589557
0.0170363124244048
0.046163268805534
0.0217088987224167
0.0431493754078165
0.018912613219643
0.0540409119567286
0.018400225453075
0.0509404999723911
0.0164186251732568
0.0464627288733157
0.0258703894243791
0.0297116063233013
0.0310960607817001
0.0310748410051759
0.0286966084833275
0.0310536529472297
0.0169413607191822
0.0391480000009933
0.022964122894883
0.0422982773956951
0.0151920270293782
0.0406827780971131
0.0337793089714308
0.0369999083946894
0.0277977571748727
0.0464798003130487
0.0289033076624418
0.0315150501633369
0.0386967520821962
0.030627912650324
0.0379812152555627
0.0289860929619382
0.0338753252823691
0.0445323515394788
0.0224529685160886
0.0393580057398871
0.0249267718014488
0.0418365636938932
0.0318777793954847
0.0343028331402844
0.0292953378933021
0.0322671765734361
0.0288505354787349
0.0352655407797126
0.0275967605378248
0.0384511151120577
0.0341767966546202
0.0381063333925279
0.0190616700509696
0.0399812261101353
0.0319240702448354
0.0561096803564105
0.0236824883711538
0.0401268549976873
0.0223320546512445
0.0373868604379539
0.0282382334924202
0.0388191470231686
0.022777625408072
0.0412098013263628
0.0328299833240495
0.0426347699452284
0.0291296516289906
0.0273643620039215
0.0437612320259789
0.0307780468819511
0.047562973609436
0.023942875525714
0.0369585113817634
0.0250798177824378
0.0461190165606086
0.0328263533454584
0.0309526709135705
0.0457241855426337
0.0402991094133613
0.0277337259061923
0.035513033116278
0.0342248240970223
0.0402355322629833
0.0456390760648113
0.0209535098406136
0.0621228201914402
0.0244475472750417
0.0447303522865019
0.040287261136348
0.0384524084348472
0.0511160734070762
0.0393383638048099
0.0254790659317277
0.0498220920255055
0.0358992110046345
0.0429065181614766
0.0287832645797652
0.0405471175851672
0.0229165318114281
0.055785824976368
0.0305260518662778
0.0807949598004753
0.038602370542259
0.0356740610412726
0.0549226186100561
0.0250788656005688
0.0378628520087075
0.0281044995663174
0.0409197958326725
0.0393173007290516
0.0496027176321488
0.0339416620161991
0.0505295025916561
0.0272953935037252
0.0485144715051857
0.0423889152813906
0.0453945676960689
0.0420633943596909
0.0373105424349216
0.0426849393829478
0.043274475474112
0.0423070846330773
0.0390766463649837
0.0482139305954368
0.0341771442879562
0.050608781916403
0.0402525669998082
0.0504232842860687
0.0488408521154744
0.0424015606222146
0.040883486559142
0.0458387702285599
0.0405224220593824
0.0423358497252686
0.0447824024227303
0.0481159252418041
0.0369652432539611
0.0553481641362997
0.0424357668230036
0.0501888388211137
0.0399430359841045
0.0544935763332651
0.0430108190581138
0.0490117468969554
0.0477941307086527
0.054538597981531
0.0479517292194653
0.0517369766890404
0.0560931259757927
0.047540810765624
0.0432171795430089
0.0729381291754367
0.036292716558597
0.0693608393535327
0.0420758809695943
0.0553504967847511
0.0510242212334313
0.0552542144239786
0.0532256209217637
0.0606360981333037
0.0619751517641547
0.0682173920566265
0.0585512126384737
0.0626654794772824
0.0607992762351391
0.0814549310977525
0.0593788704428585
0.0668822548660421
0.0692287636267502
0.0699956513882465
0.0915697659463366
0.0469817823618855
0.0840628036617578
0.0598976138050848
0.0695803555105534
0.0783708707808766
0.074674023531184
0.0855254593243259
0.0784833455504379
0.0853941598618987
0.0704773267282711
0.093188620767281
0.076162209185349
0.0950901564408161
0.0814316609510101
0.101895453017232
0.0893300077727504
0.0955678025699832
0.0972533096748703
0.101854748394304
0.0847826364051356
0.110481810346692
0.103370471008647
0.148093680597875
0.075581346754374
0.129430711046184
0.112418768633917
0.12092921791779
0.112968524265309
0.102762047050677
0.11117385672956
0.117976182310277
0.12185219153613
0.131261914035333
0.123812133088128
0.130859989877538
0.136977003517835
0.138430237467818
0.138375560433813
0.140244445814266
0.155312992491102
0.148977151409432
0.154327396889192
0.143575534963887
0.158777755220191
0.143788332986544
0.194663135636285
0.151475468514209
0.154931631696657
0.160996381692637
0.162877843350571
0.162734943589794
0.17207605200603
0.174928466786779
0.178309788042623
0.201261128387724
0.182882807387003
0.201945192422094
0.183335122399204
0.194619616866221
0.204923746743457
0.179008553542826
0.199543690507291
0.210057758229757
0.209315753190271
0.199262188293107
0.224163814578565
0.205584808896132
0.23119975335517
0.238415466143964
0.214691378804549
0.232608231247153
0.223403831137567
0.235481249961796
0.23195105209162
0.252344904824921
0.241198443914265
0.235489573333975
0.243384492073065
0.25948883746825
0.248803834388945
0.260425005012525
0.258739461555185
0.270459892227592
0.262202721769497
0.266117739409169
0.287789068962982
0.267057519701182
0.294586703610199
0.277449332190913
0.307778477867188
0.323910478398739
0.294772451681215
0.289203306992175
0.297037855753532
0.309614889934699
0.302581554643304
0.322494214782403
0.324210989885927
0.335195463119435
0.331922953815005
0.341492457891505
0.339316478422073
0.34171913026174
0.336673236952577
0.343335579490924
0.347152646162047
0.356264802795451
0.358609673351016
0.365205029503689
0.39664348914127
0.384229382459867
0.403157553910762
0.393086197073847
0.383133077623415
0.396456543711007
0.393344677502043
0.37695734745033
0.406121366164922
0.415395267118783
0.391873291967067
0.413520752751357
0.424876570887655
0.435539615641414
0.430225860756597
0.426490410991721
0.433929092089774
0.434425733946659
0.449576962155629
0.457170768076984
0.462605321471661
0.462470642312791
0.454424232196732
0.485761626409244
0.463384639586233
0.455781522186744
0.498584319133897
0.470459193079476
0.467024967797714
0.481232544750894
0.507555234122004
0.497434239818298
0.512710138781016
0.507112943085886
0.538343842232411
0.513571085752365
0.557403813331228
0.553206605284693
0.538923680261736
0.55389108907344
0.548820885671416
0.530353443370488
0.575820324172634
0.56596548906611
0.580879761405671
0.576987947162659
0.580062961180863
0.560610547956802
0.591020120011842
0.603701758715885
0.611817270784126
0.620609496080943
0.612833397396855
0.614639151385108
0.62418358692721
0.601905317907814
0.618652865984573
0.635333155928143
0.645659709491077
0.624031395439421
0.651017673315736
0.651632142764769
0.693623180925355
0.65960789502422
0.691182557455837
0.66616800982877
0.715527163614905
0.684372607639697
0.690305586781631
0.662978101307746
0.706288936954775
0.681262219778441
0.730843791655846
0.735938303178542
0.745449497830891
0.712226784837957
0.749215379845218
0.721566665924189
0.740713766032595
0.746628543721138
0.754138606897321
0.734730980737999
0.802291595704395
0.770643004213185
0.784116996980078
0.793640978504999
0.794088119990729
0.761715834577289
0.842249623028251
0.788869373373195
0.843915688929396
0.811916184977403
0.845420519353024
0.830355452692456
0.879555760633573
0.812235842951971
0.854306848447864
0.836340587289906
0.84792975953448
0.86447481741481
0.906837714583384
0.843706313075992
0.842698936760999
0.88599941984703
0.886824861969418
0.883116250589786
0.865474416365778
0.814099496194701
0.92591951584178
0.892717081818569
0.922049735203496
0.913472119625533
0.949697347774159
0.891365358979335
1.01452675610016
0.926579576588287
0.962427170039868
0.916293318704587
0.927793786622898
0.994424558423593
0.969640470502695
0.960355991956178
1.06832326332062
1.01127747696187
1.0212279371557
0.948295308269181
1.00018144313512
0.98560136503098
1.10179157592355
0.953767209927121
0.99428347252969
1.02574296994769
1.03937324469879
0.979733858659808
1.07361501687881
1.03374908174917
1.11899149029282
1.08254528523664
1.04064407482455
1.01012242874222
1.07075127910146
1.02372809844758
1.11835277032285
1.05512847362968
1.13394014973334
1.02198277857811
1.11542651045951
1.09288625879766
1.15237402001699
1.0476965939217
1.24144836421016
1.11618110586682
1.13456674438633
1.14736917886689
1.24256056110131
1.05189810072437
1.1196692464153
1.11598933338607
1.31523904836056
1.07021742646478
1.24949021934985
1.1603445802479
1.21438684413273
1.18461672473632
1.20847172640254
1.09125345002912
1.11267995696973
1.13089704950336
1.29457064475303
1.19219846566184
1.28149299695878
1.13502892677868
1.37584114182821
1.25931444375847
1.21219895918097
1.11135174522364
1.28784069065867
1.23390356232061
1.22260682424086
1.15970760385042
1.20362769123037
1.18484726193965
1.24015102687736
1.20262424092418
1.33186594391748
1.31294492955881
1.30482608943706
1.17245751700634
1.31868639784917
1.27502554293231
1.24070880030718
1.22603530096436
1.49810991440095
1.28793730273922
1.34562576306091
1.18509549408437
1.43261919127047
1.30250950297768
1.373539568111
1.23838265475059
1.32880331370824
1.27204415681884
1.39464324336597
1.17348021771942
1.43511871890156
1.28056923998758
1.42042727570895
1.34162327870784
1.52076845428312
1.3378792273407
1.43571059143616
1.24707979334534
1.35074400340342
1.16391965572671
1.43261696722655
1.35738877201298
1.40846020984261
1.28941602915628
1.41939673830112
1.33484540253459
1.45595711024801
1.32487641873507
1.32614919031218
1.26067693772109
1.51911342701139
1.40402091150941
1.37057126354694
1.39654137862016
1.34479236360016
1.35123804107475
1.59406783210955
1.32958146302561
1.47978806832384
1.30049755370396
1.3830388582031
1.34742499501962
1.45502594135801
1.45826775775505
1.69147550641038
1.31414276796873
1.47375189544583
1.35821657206889
1.39205444662497
1.34295931204313
1.41756006494336
1.28814185646942
1.599416202969
1.37813287477168
1.32942311132353
1.39763923398838
1.37631260731114
1.31994994462189
1.44452948689241
1.41482986518528
1.54819778544291
1.42874174057402
1.37631903917625
1.46256174095293
1.47109953302794
1.40227281758574
1.46698669317227
1.35662064022082
1.57358594950283
1.32770078930427
1.4376078205156
1.36907794250933
1.5310034605858
1.4200710928793
1.36281618318251
1.4632064744993
1.65119591407776
1.39769169743717
1.45186206877655
1.33320369654466
1.42418005884719
1.4096669956212
1.52644792834288
1.33229427142042
1.50513889967199
1.35844345276396
1.38329042267237
1.47779456306395
1.56280952003206
1.35426956446799
1.44029866406038
1.34254359877172
1.43884213616063
1.43744417663302
1.56056339737723
1.43326881347995
1.61864560876851
1.34461479554008
1.41688337921628
1.40225951308725
1.36089218887632
1.31353492156065
1.45259206691809
1.42049850017977
1.55222480522581
1.42075624482718
1.60519736725359
1.30112098789549
1.50316977007431
1.40490613490385
1.41878082551167
1.39406370747611
1.53993110476962
1.41015835573459
1.61514943458185
1.40434541359144
1.47677787109235
1.36342981550059
1.36294252246032
1.37508532071805
1.41754478103251
1.34153557743156
1.56903554151676
1.24457519431837
1.37666699709243
1.4361114604867
1.55988422973142
1.33927454081057
1.56738060375868
1.42333707806343
1.52776468360848
1.31997955378041
1.31340243928343
1.47053833210447
1.48298948829379
1.32245494430843
1.45773652156457
1.31600429493458
1.3274736708558
1.3980764885238
1.39734394312595
1.34329949575496
1.36184915259961
1.29903894736932
1.40249111608995
1.41921140645646
1.36603153210845
1.4701622240771
1.46160103633755
1.37805975101235
1.33568773499535
1.33189397135522
1.41704363329072
1.2889988318529
1.45731702730605
1.34663422729917
1.39076068017417
1.2950901325866
1.40934338879841
1.2923961669241
1.35129786010084
1.34069335661086
1.37607824658573
1.30892277628801
1.37262448361415
1.29355481279124
1.30465678256883
1.31603412639321
1.4146248027301
1.33507636414364
1.33733953501564
1.30895360856949
1.41485366701718
1.24646895266009
1.30836045839608
1.27506423524301
1.43084389095358
1.28275174195597
1.32712794476719
1.15223518812611
1.3255596571964
1.27198347914246
1.32365422946518
1.25653279400389
1.24505326219348
1.20723785960208
1.28011957311304
1.29500108550659
1.3517538399242
1.20223302210336
1.29020750625713
1.16071489682584
1.32306272012874
1.21294282559121
1.30661158117633
1.18241828205624
1.26656683567313
1.20815920210685
1.27774210184506
1.17267562799184
1.23775056000018
1.17479582585278
1.23967703775097
1.18173304322247
1.25154243476967
1.17462070938058
1.23378191001664
1.17743407166017
1.2295308390634
1.12915489980954
1.18022295387979
1.14132654204412
1.21665934267614
1.17316801534619
1.16483471851055
1.13683621190285
1.18453382222893
1.15832040748773
1.19280553577154
1.16565230162792
1.10527878746859
1.12150615969137
1.16306142732577
1.06653648959487
1.11382965584133
1.14344675231369
1.13778888549402
1.07163227349693
1.14686120687361
1.061625326081
1.07380090119594
1.03743661483458
1.14144532134499
1.02269076960739
1.08588489157438
1.03751947035131
1.0987619492674
1.00288130282303
1.08187622115912
1.04673882354851
1.05158802899723
1.00655761211206
1.08269723635796
0.995929027183886
1.05578666795934
0.988274964220586
1.02988925203392
1.0139268423284
1.0152678254692
0.985414311778178
0.987641094844414
0.989171296660271
1.01374156849268
0.983571424746325
0.997952274974291
0.970856515457849
0.974353826995634
0.973447354173589
1.00631065840825
0.963854714655279
0.985574033264817
0.928567855879416
0.937550667709467
0.926450891199749
0.96375476425436
0.906744064804124
0.963891953928902
0.886291730099964
0.931381290092674
0.92487175451767
0.955593903852462
0.901065831857792
0.908186972532977
0.895124986783894
0.949834157213735
0.878626539123612
0.920466422008524
0.859344638255238
0.880598467777531
0.848392057997458
0.87172273132318
0.843282559385972
0.856801061038674
0.833266207547932
0.856918333038348
0.838265258362387
0.868480261402522
0.828126668838005
0.828111574996361
0.808875878411808
0.83170215525524
0.799397801492464
0.828338845741065
0.802719018755629
0.821270077060185
0.778060365591987
0.802582602070836
0.769287159329859
0.824930328074633
0.782908350162835
0.789681555023374
0.774185207271731
0.781828968523272
0.744450576008925
0.777224989458077
0.761163421043341
0.775470186001239
0.750771990187794
0.754365104319177
0.738255863211616
0.757806190365937
0.734287307669144
0.74628056591244
0.723281517393445
0.735556346865091
0.718849681173215
0.740235736159602
0.718519032777773
0.738698304491384
0.711670805647557
0.704743257525223
0.69558796396295
0.722528044307069
0.699380355586974
0.709469690636099
0.676293462234162
0.696817768841791
0.684595387638857
0.693905677760688
0.674670892159548
0.691738768156054
0.660819557574266
0.676169622450566
0.66499881675104
0.667702930998689
0.660050968290919
0.671002844930006
0.662569967975513
0.663757100081374
0.639789260975929
0.653808641923216
0.636846864203259
0.640941533043317
0.629742303111999
0.636574915195653
0.628457857905219
0.633788749771694
0.628982525007801
0.649662633588896
0.628375858686911
0.626031683336523
0.610050464129558
0.616314630691304
0.597153951979443
0.609210477531832
0.605912075303591
0.606698848636506
0.595185928379745
0.603115215543649
0.574705745185219
0.600734525140928
0.576795486713638
0.591034256302087
0.572503932955781
0.583199857293035
0.555516206596419
0.58104202167558
0.551252096648523
0.562438024406261
0.55387857662073
0.57550926468117
0.543200715433396
0.562694556866683
0.54847540808774
0.556133366558405
0.548317806355862
0.551967185544147
0.534077851045091
0.544048274452059
0.523029523805624
0.543619764475396
0.51375514489047
0.525844009245213
0.519883016472735
0.529374696469068
0.520642215478826
0.519015105831393
0.500221109248329
0.514946288370909
0.507361310094283
0.511791856143717
0.489993678173007
0.512288687872778
0.496573446336164
0.506904464543037
0.4928423798504
0.498699792561073
0.483180718847524
0.487871130529433
0.483755523201306
0.484098448675228
0.475269129264787
0.482109336177694
0.471655006930163
0.483907135424875
0.471199476422123
0.485293649869662
0.461991651013166
0.474794977024184
0.465982954313773
0.470283613687051
0.461701742374629
0.471449486301132
0.465271688401102
0.473562970486497
0.458282588901132
0.46090648047644
0.445946893864537
0.460813043147257
0.461419440853094
0.459980011595544
0.446030271203977
0.460881366222079
0.455127549961324
0.461294350885291
0.4471208938306
0.455413757497245
0.446321236460816
0.451206255793471
0.447313397941093
0.466284983133567
0.452737935260757
0.459760980078238
0.455823849847913
0.464661100947676
0.451418281871787
0.459392071896168
0.452886709683003
0.463520664746861
0.459301780998686
0.463464127996117
0.465953513987153
0.472428760612553
0.468139171531492
0.48249437758657
0.475561239736492
0.488170584272721
0.47395048792712
0.493812983975426
0.483002008101251
0.481570919960181
0.47816197187878
0.511667039824217
0.489901295785796
0.50997408510539
0.503350651682534
0.509407331807725
0.496390516705827
0.517407437016076
0.512015777419393
0.516880872927979
0.509394730490229
0.527222228607335
0.512196297696543
0.530289407965787
0.517944721884423
0.539531888409578
0.517695911810655
0.539478551168595
0.535378687723882
0.549098226458859
0.539174079620243
0.553785656017936
0.538009222253839
0.545575757007574
0.549324853212373
0.567252094458632
0.558191850037095
0.570061606659174
0.567838816372146
0.592963781111027
0.574483982740861
0.583962546565678
0.588392430189958
0.596058060918286
0.588321163490515
0.608077585822194
0.584788529840139
0.613380934412483
0.605197679886517
0.6068994754008
0.612165380039412
0.617049728829846
0.610954064639683
0.629399728161808
0.609336774421807
0.629477863170248
0.615281419007239
0.628385318248426
0.616779655829028
0.613431715233467
0.612329545378792
0.611019312602545
0.607122147889555
0.633167481973189
0.615906261687851
0.606778757105281
0.612798240854856
0.618805506997423
0.608068471031546
0.623062474487741
0.606750571629666
0.616757792812342
0.600880970507916
0.616901646017561
0.60216586561195
0.610777943955759
0.600858775519507
0.617688303070928
0.604827769549223
0.614212465954575
0.601033503939448
0.614445433198621
0.595881076862119
0.610455209358572
0.594628372781664
0.609400167789877
0.606131137355141
0.608918786011997
0.603676159370643
0.61349867245843
0.592168863372847
0.609035504846339
0.614259270237491
0.608004134417193
0.595599203235616
0.601173911521516
0.60353263174699
0.610993040719222
0.607241724030333
0.622323544869742
0.599921951744822
0.60429555328793
0.608039535252991
0.606237294753623
0.602600913633563
0.614851931476785
0.601981230814373
0.608021941157186
0.605518283028304
0.607384829747904
0.593005286539182
0.610632929769643
0.589273774385885
0.597477184610584
0.572983439853613
0.588180927161965
0.568296968737109
0.570450575642997
0.566716522888076
0.577276894847389
0.56318922472316
0.569833285064208
0.553915119204078
0.562828918773104
0.548692528902056
0.551626426470037
0.546760241870317
0.544813511989066
0.524967604473647
0.534537246714893
0.521454791561614
0.523788898360917
0.513023662504618
0.518595184067766
0.512046776544188
0.524356084814213
0.502492975295391
0.509629617933199
0.499662105661296
0.505658635707474
0.482482923731881
0.483812537127707
0.479130042233697
0.479699611048838
0.480164430329741
0.473719141217601
0.465617363365378
0.467911187031689
0.453161811329093
0.453647296543913
0.451642992763068
0.462683929229744
0.456742017171038
0.451351981179995
0.444585547011973
0.449792928861977
0.44084253324729
0.445549629321223
0.433860648190274
0.440897717595168
0.420584516590383
0.430397135207015
0.424115925292935
0.434157296066284
0.425145014941054
0.422789079395819
0.417027537629431
0.420262887273406
0.414798485277896
0.420581172144487
0.418712174646225
0.409926301879064
0.406361775726224
0.402553503696124
0.397077272560077
0.401181915905954
0.395027125934641
0.403335705521595
0.388244218650241
0.399404257686004
0.389507330158091
0.396766800291564
0.391324237932183
0.393613007100474
0.385425555549623
0.386892218994647
0.380778567631992
0.388040281600631
0.383313802297072
0.387738857973799
0.376051637962403
0.384533669276288
0.376134453736615
0.378466463375322
0.371433442873591
0.377234133755584
0.371886796902066
0.370548247245897
0.363203958840533
0.371049015796541
0.37084130820332
0.368097934067497
0.366107893825069
0.370864735889894
0.361212111185408
0.364604264084891
0.363765150321158
0.362614825700876
0.351562310997674
0.355161322123371
0.34538200602609
0.358237557506876
0.35212304917776
0.352711775857796
0.349606897035234
0.349006544933939
0.348100891000681
0.351717097511514
0.34429859192303
0.35213803986154
0.347492970264706
0.347197991971716
0.342340071437676
0.34268652678755
0.338967483200038
0.34054875060364
0.337829928879461
0.342265332739391
0.338226067496708
0.335571529980261
0.328566410885931
0.334920527434197
0.327481236831772
0.333356792401582
0.332460730101382
0.333414080421813
0.327787652194367
0.328860096183629
0.325197669701856
0.328065373445063
0.328144727253915
0.336237118732526
0.323780800858876
0.329727724579328
0.326440319168499
0.328582487813238
0.321662000086528
0.322016591820023
0.321619219744924
0.324232526590072
0.317756127846171
0.319800904807831
0.317685011755238
0.321518019978072
0.320619010721351
0.32107024005495
0.314065694420879
0.316386602247883
0.320070334260209
0.320527212818748
0.311417625625162
0.317062022698871
0.311627962914669
0.311279219588392
0.313676338880571
0.316653516035965
0.316249546841899
0.318189744558576
0.311511656617363
0.313172838115064
0.308393547823838
0.309648268749264
0.312381238607572
0.317486939086325
0.308618701207839
0.309983614462391
0.312010796117834
0.312162886859115
0.30194617715043
0.307766815642689
0.303548364351759
0.304425295073421
0.306649612859933
0.306810029429412
0.300148995217794
0.304961549684144
0.29735708669573
0.300366750691722
0.303972365004912
0.302605870449687
0.293075413696077
0.300890284252141
0.295805757492151
0.294685967534703
0.299102913366981
0.300795134037816
0.294992987434342
0.29542898737623
0.29319807638838
0.291822441125191
0.28928854515513
0.291246816045618
0.291137047142098
0.292682126245126
0.287328276953098
0.290629931894434
0.284557197619581
0.289677206678778
0.287627382673367
0.285328104478753
0.28867845717556
0.288839779555981
0.282361461530512
0.283841732938017
0.280477154575489
0.284435133913371
0.280908644525709
0.27653594703141
0.278447109899653
0.281838214616662
0.272140017797901
0.277013978718348
0.278233660497829
0.280183384918662
0.277186673996377
0.276225897340612
0.269952615319732
0.274129973463704
0.277081481607261
0.270040036543909
0.26969790306861
0.273007863441477
0.267992677656746
0.26969161426089
0.262991451283445
0.267507816766858
0.268186928268002
0.264471372267329
0.262157753802817
0.263989270567096
0.258288437280146
0.261418515669796
0.25906855527813
0.25793832436733
0.256300922767422
0.262159157117808
0.252912331764385
0.252104814504186
0.255106027014523
0.254536100907578
0.25127780295283
0.252844039128745
0.252125662636883
0.25303089534529
0.244248197516769
0.247366336075485
0.246497548615444
0.249593430739361
0.246742930564927
0.243765443710199
0.240511291237003
0.243496234831655
0.238217968198734
0.238078701871213
0.23553063592367
0.235161703168281
0.238549659341324
0.238510318883725
0.231727646435727
0.234625453051274
0.232503071477987
0.235383309763148
0.231063971281531
0.23326093999048
0.231642050262896
0.227063851476322
0.227089371852738
0.229194741166696
0.225849851703823
0.227479007967711
0.226151247413757
0.227351757334441
0.223930676050692
0.223954011884737
0.221653461511186
0.219778152282157
0.220670963135322
0.219248479030892
0.216611727101248
0.218072939935491
0.211841917753523
0.214230445778421
0.216655627712101
0.216467879341596
0.216251835280762
0.217038934814589
0.213766309841957
0.212935338646732
0.212963655850623
0.217092478420628
0.210826881655086
0.21128715182121
0.210357921831223
0.210137632877715
0.204325680620833
0.207185272086492
0.206792058675273
0.203510836706646
0.204999740637874
0.20356716387036
0.200797956092934
0.204754504480619
0.204493638313981
0.202508040157057
0.202338059132622
0.201277327564032
0.198693620964767
0.199078289344702
0.197432672587113
0.202034775321723
0.200534579758726
0.198066009494204
0.195116056627268
0.198235432468765
0.194040793192903
0.196102668238451
0.19510795678049
0.192524269199879
0.193215557249375
0.195166289018692
0.192707185686069
0.191116466673911
0.191210910223875
0.192833450389615
0.187817243078208
0.192313195667961
0.193511893227034
0.189062603081828
0.186914548781244
0.187859685692764
0.188257600648806
0.186468132367157
0.188579924555883
0.18893416207176
0.187426414915258
0.189840729692173
0.18555936713518
0.186899294023879
0.186330964548947
0.185023146354253
0.184086027812813
0.180197915524646
0.183554217233213
0.183549862171221
0.182578450277101
0.182822629992682
0.180896644798118
0.18130594287469
0.18280527530104
0.183453669605058
0.180456319867126
0.176478042246081
0.179567230828419
0.181861386938121
0.180272870315991
0.177932156413055
0.179380395176024
0.177184667924841
0.180245410871244
0.177486476872382
0.17491781181072
0.174876427694375
0.175483733253639
0.171748271477952
0.171527126608412
0.172431828398604
0.171424762990466
0.173014554078698
0.174091778361383
0.175423229689315
0.170812021841314
0.173285228314436
0.176227163716833
0.174471472143203
0.167749068443204
0.170087970048589
0.171404592287213
0.170798758463089
0.171218287642036
0.170428051017048
0.169063236569555
0.164485048407425
0.168167088713685
0.171365147767756
0.16731193670501
0.166769125466675
0.162963546283506
0.163493673507341
0.169172436920259
0.166290814734729
0.16565485277407
0.163571700833305
0.162755605349014
0.164871240328906
0.166308794029017
0.163501386927289
0.162127538717995
0.164149017430344
0.164480448437708
0.16303581115387
0.161473497993556
0.160294969562826
0.16018152720195
0.161865676513705
0.162994701899012
0.159044380155988
0.157620316604705
0.157554680735663
0.163901096253816
0.159742427276317
0.159985098517182
0.159617517546906
0.160994135914576
0.158837346766169
0.159667849976531
0.153341252265283
0.156255688979898
0.159413149037107
0.15520099655667
0.153802931294285
0.154697916291873
0.152756953912721
0.153490045304993
0.150878468912982
0.15113356178098
0.150628690232328
0.149054323066416
0.151491690090201
0.150283536412319
0.151102693747194
0.149583413026948
0.146507918951827
0.148839124350502
0.144582812801401
0.14786111335011
0.144341597280868
0.144171945624829
0.142838177270766
0.141975959786846
0.141475432015955
0.144291849370331
0.142356783541437
0.13918575636603
0.138282024745163
0.141819791850486
0.14171244792083
0.140851529982042
0.137679646557651
0.13795026564415
0.142376977420716
0.134564890251786
0.134351605758975
0.138632725736272
0.13796340687083
0.135261173435367
0.13563079293028
0.136843249137697
0.134442210914298
0.135043792342061
0.132370868463176
0.13636040352759
0.13278462412026
0.132245104678592
0.128194412813164
0.130188099665418
0.132320065870797
0.13190553121269
0.127627776799791
0.128275649070731
0.128180840912335
0.128147958565869
0.128122546941668
0.127994588562426
0.126594948754627
0.126628145113945
0.123840531411977
0.126150699717682
0.122329875338593
0.126992004949183
0.122915484094501
0.122781630656526
0.120148101571932
0.122491688750137
0.121653194252598
0.119200771541644
0.121425840001241
0.123545588680941
0.120703066411073
0.122344276373704
0.117293870265434
0.123070307185425
0.120018003314459
0.119912564287846
0.117705286910249
0.117096941186105
0.11471098903061
0.116190088051399
0.112887283362969
0.114961731111419
0.114751951477631
0.116704966221609
0.112632064477821
0.113837251860112
0.113209218782145
0.112264401710905
0.110361765810941
0.115910476582334
0.114959516680731
0.114753069501771
0.112692350950133
0.110323878370867
0.110620201361021
0.113470753339157
0.109455513059404
0.114285851584577
0.110505151082473
0.112190479356684
0.110423208445754
0.109539040783673
0.107089811847894
0.108008064058385
0.105953117534734
0.109584174995782
0.106653852900764
0.107739122920238
0.107357557195074
0.107717619201512
0.106868338078787
0.108644989097332
0.106848212539623
0.108695981557708
0.104337877024044
0.107883157141763
0.103372460017851
0.107270956120176
0.100432491233905
0.106849477721352
0.099007015514371
0.106453555723356
0.0957609923695639
0.103813254273138
0.095724867899695
0.107743540545806
0.102281233904039
0.103467837636658
0.0957955480517612
0.0970442885981453
0.0918208282687331
0.107208248674324
0.0932746990136597
0.10411222763073
0.0978199498325801
0.104933535865241
0.0881056091443072
0.104969855984306
0.0933143960841639
0.0999700643075324
0.091931804070267
0.0999686360764266
0.0934605004275265
0.0978595332243359
0.091120116353331
0.101779811504116
0.0875347351412337
0.102276383987928
0.0924865533627257
0.100729283979776
0.0866413947545158
0.102291625257145
0.0822328775723395
0.104053463981612
0.0849623918868569
0.0994072656891411
0.0841809289793188
0.0990136713245018
0.0802841988667955
0.102140194420947
0.0798199652920296
0.105806823516068
0.0867463755418834
0.10882375471384
0.0853228942295314
0.10606001597456
0.0763449774004247
0.0997568724861225
0.0790132150016552
0.105805099801087
0.0879030488322163
0.0988759316302931
0.0860872786802082
0.0931313130688631
0.0962110795555413
0.0982068538567239
0.0973745915940504
0.0818751507800455
0.105204431485833
0.078672483588078
0.112276321369127
0.0716367049885979
0.117871892478269
0.0722437756820178
0.114593163313414
0.0722586311569835
0.116175345071365
0.0694009105278993
0.107510369572791
0.0802517096419432
0.0995970667857576
0.0863770060776003
0.094765715478065
0.0920922873713605
0.0909594221462444
0.0902883480747797
0.0918637111151298
0.0886199797696799
0.0938183187040793
0.0882741584363457
0.0964958579573391
0.0895515012555131
0.0961817880505908
0.0847722066396905
0.0942750370265867
0.0893339181551239
0.092024634401098
0.0897152661255344
0.0928555236794109
0.089707863607798
0.091653258280527
0.0909657249247967
0.0942370850510557
0.0874060855038011
0.0944740261531343
0.0904601098536751
0.0947491208417177
0.0884465340474138
0.0907264278626201
0.0879200272042371
0.0919084505528729
0.089544870895271
0.0937355119726523
0.0889619894289883
0.0948008494507389
0.0919382469041294
0.0928573603549884
0.0895990518121756
0.0941618702584211
0.0893235778671014
0.0958351609364069
0.0901721859020418
0.0919062586284306
0.0883586056122862
0.0935841034101663
0.088861136714138
0.095354286571509
0.089691727275234
0.0913774033268288
0.0890503630904111
0.0938184491642569
0.088699589396414
0.0924681618925333
0.0885664337983949
0.0918900928388693
0.0877095259431191
0.0919428085111308
0.0904112073065922
0.0948580401369673
0.0913029345888944
0.0935266964209749
0.0893161772561304
0.0952961933538008
0.0904687602842
0.091240962801928
0.0927587102824775
0.0910265504314376
0.089942187600736
0.0910316565700169
0.0927468795484704
0.0932120532346182
0.091398082479705
0.091853084451622
0.0907352135358009
0.0915238975869857
0.0920718475123094
0.0916488789405066
0.0894096162389723
0.0897308193106915
0.0907084016108669
0.0926307825457686
0.0894789333636863
0.0942108880328534
0.0924791401753746
0.0922703092611211
0.0918388832478676
0.0913520740163712
0.0914586755421982
0.0937112272792223
0.0899920445564592
0.0916282672321149
0.0920528908657196
0.0948704813606462
0.0914274556340258
0.0908371645378163
0.0935598944963452
0.0921045359155908
0.0956196527408243
0.0942417797474268
0.0919684708249606
0.096679703829826
0.0947025888225625
0.0924664660475908
0.0924091395188179
0.0947816292459914
0.0941780336536899
0.095755395994293
0.0919138337110592
0.0946703298206259
0.0950851540734338
0.0965270861720067
0.094983712749264
0.0952837753988784
0.0959269565731904
0.0952419239285318
0.0961150592978602
0.0971105461921992
0.0940857510508479
0.0960437210612533
0.094023114749575
0.094739894563295
0.0965802520952677
0.0954372294507334
0.0947304897200403
0.0982297394936914
0.0957065043405329
0.0960053925556799
0.0974264006045114
0.0957002405271835
0.0980229748477302
0.0960284482331214
0.0954230975972712
0.0960891922445193
0.0962103496359579
0.0945180711503036
0.0972587688286833
0.0975139382764009
0.0969634826984408
0.0959266620693267
0.0969166482998324
0.0979636511841437
0.0977443212907482
0.0991580440013954
0.0977303715229884
0.0968595672994381
0.0996131533880495
0.0962514984627903
0.0991019151941099
0.0988405405949532
0.0986957901621273
0.0979654200361663
0.0960518166390139
0.0966240748950412
0.0987803971164726
0.0981805449446741
0.0999273403459038
0.100470793412276
0.0988553332081967
0.100923957140236
0.101001551809868
0.100302564653171
0.0981363819711965
0.100983560846847
0.0998847297041861
0.0994118232835226
0.101243635332094
0.102382667566008
0.100011985970526
0.103871262327202
0.101977741525443
0.0991507024064365
0.10046721918423
0.1024898885542
0.100783779030408
0.0991705710303326
0.100429142438315
0.0996739852925547
0.0991207639853637
0.102005368187843
0.0989891250721539
0.0987714289237984
0.100836352921339
0.0984480614518794
0.0991618920769973
0.0966925510295649
0.0979665667194188
0.101000319198402
0.099369948164853
0.0979927255906085
0.0957982829779386
0.0982254579062463
0.0981557999946119
0.0969328755442265
0.0992696287922544
0.0973646314756824
0.100378684795738
0.0987419166353842
0.0972775808123895
0.0976041501005031
0.0979335320097976
0.0970363779809279
0.0974564574929314
0.0965404107218764
0.0962700185161352
0.0993281515961121
0.0995764646633964
0.0967135603861621
0.0953914659390428
0.0960220619708654
0.0983332893010311
0.0971077890849088
0.0965056076193409
0.0964355520085952
0.0963519010412797
0.0983994246960618
0.093674908543131
0.0942631234077818
0.0946173276328167
0.0953903127397094
0.0959255523727925
0.0959974655916757
0.0967267631670887
0.0955640889767189
0.094705627160559
0.0937310509507273
0.0961817505796138
0.0931528806161451
0.0946024359181529
0.0940078981669533
0.0960425692466729
0.0939198620546345
0.0934999001556805
0.0918546074899824
0.0915690153484095
0.0916997755638477
0.0919434400924574
0.0935599418043287
0.0938752098051892
0.0903168154898921
0.0940712827998786
0.0930180675178711
0.0942758002335274
0.0913584504127985
0.0952973844450204
0.0919366072061391
0.0923717947879997
0.0921762068435553
0.0926826974715622
0.0905734533542877
0.0931214816167121
0.092012303237747
0.0916418760892079
0.0909788149271513
0.0928966070751381
0.0922926079962091
0.0914587660527991
0.0910219480530023
0.0919857004559463
0.0899764410021094
0.0914146013129614
0.0941299571006813
0.0921572187214164
0.0913486008973168
0.0946259226530832
0.0893727429888695
0.0933188541103834
0.0936333126296832
0.0912818152251171
0.091746075131903
0.0915563040852347
0.089852694703029
0.0912649273795672
0.0912347141904021
0.0893411005733337
0.0893314579466254
0.0912329838521489
0.0888360141538413
0.0883690039045788
0.0892044251263363
0.0907991882062925
0.0896117601637539
0.0881803330361786
0.0886488156761865
0.087801493124712
0.0882628845672719
0.088830557173302
0.0881890476806389
0.0877864920639633
0.0894475862519218
0.0908499177827306
0.0880647279210843
0.0882187295929366
0.0883280907334987
0.0869454319221675
0.0873842724074163
0.0867877454965218
0.0865453380642442
0.0866982234367154
0.0853675750434745
0.085128851877311
0.085096916316823
0.0846576446177493
0.0821155224684785
0.0841180350158556
0.0848921378166453
0.081806340101985
0.0823255695881466
0.0841739657214941
0.0839474334868243
0.0833423046205456
0.0809607894007204
0.0821383243672348
0.0828266049748608
0.0835913905616716
0.0822561047537164
0.0852233953647574
0.0802381775875508
0.0841427018988153
0.0795858645296636
0.080875072833535
0.0788782417649052
0.0816713575499551
0.0784337192928273
0.0833421719069999
0.0791606460119863
0.076712773999168
0.0750221817293724
0.0787921202701513
0.0776450365756728
0.0786902767975663
0.0772952010554904
0.0811339591430076
0.0777704802313506
0.0783289457993134
0.0752768795110786
0.0768679959116983
0.0733301277077551
0.0766166108533643
0.0764208935026234
0.0795099710330295
0.0741904722896973
0.0761513895721856
0.0752716728201819
0.0738413914207273
0.0762647735724899
0.0749352733915543
0.0736585175305583
0.0714234682182175
0.0742480565116337
0.0760345544426393
0.0739036221423863
0.073869853989196
0.0747453230531226
0.0735442455883962
0.0737512039248118
0.0715562556775114
0.0729254932370276
0.0747601854204269
0.0740530572229529
0.0735524621418841
0.0706156603463964
0.0716287295946409
0.0714828741080933
0.0723661892365442
0.0729970500704671
0.0705582459726485
0.0735095673030596
0.0711235701876648
0.0751285822794029
0.0712708583483071
0.0730445838776062
0.0712940148391196
0.0699394247039363
0.0717477266997926
0.0724268910079717
0.0705369103895656
0.0707399544368442
0.070202782244831
0.0696401109257624
0.0706326406806286
0.0707383885847792
0.0721001552846885
0.0690077111129362
0.0691938399519353
0.0726475099694361
0.0682337789980644
0.0705604147587687
0.0682264049451858
0.0699460962573866
0.0689943677386545
0.0690600612173619
0.0696325360111318
0.0689284798841594
0.0690445227390355
0.0695725816347808
0.076912058718429
0.0633434995400327
0.0727753004797434
0.0661929888017065
0.0713941916463722
0.0674379454817172
0.0679126204528825
0.0668141643058306
0.0694878762614831
0.0664442581195845
0.0671712740177366
0.0645744932693458
0.0699912380210934
0.0650951364766433
0.068118752330895
0.0674530862604507
0.0692217369157696
0.0631941939022289
0.0686844315590907
0.0641155313843732
0.0679704905291295
0.0694388096305986
0.0678227197687239
0.0637717756891256
0.0726321568489991
0.0600654947487594
0.0739861124107629
0.062021982929425
0.0698947421643274
0.0629451640699732
0.0665830351959588
0.0659982728212282
0.0675411885959942
0.0646169335223351
0.0684553878848794
0.0717932906227914
0.0635791625853977
0.0681877826867733
0.0636271609446937
0.0670505607989399
0.0660022927924116
0.0660390097460608
0.0657603379857883
0.0644036434438016
0.0652202423315818
0.0633042830538158
0.0659939979017247
0.0644750305040641
0.0677663124437712
0.0656855279621083
0.0660876166760659
0.0670385260421065
0.0674277398786359
0.063707697784657
0.0635612937604228
0.0643873641544718
0.0684820009299744
0.0732663567101696
0.0597349152976173
0.0690182313774341
0.0622490357546049
0.0683232939711391
0.0647871799565276
0.0658234734800862
0.0664134842598354
0.0670209989929254
0.0631485177761029
0.0666021664626761
0.0638091543290526
0.0642544213987966
0.065093071390748
0.0647595435575298
0.0650367724811937
0.0640873191169405
0.065590798776232
0.0606412568419967
0.0686662525802347
0.063457169903136
0.0742931257498919
0.0709735052043947
0.0625035323840983
0.0667333818277378
0.0635322070536985
0.0648240396262351
0.0647843935632966
0.0673033115081119
0.0600938307234497
0.0674852624265242
0.0614318555985852
0.0664711131172546
0.0623655366136023
0.0664284749606948
0.0632245577994098
0.0680304184010571
0.0616493553892329
0.0670397589946898
0.0619279462246727
0.0709322377026645
0.0634602760205776
0.0683752592261697
0.0609883396731291
0.0720528137450325
0.0595683703485663
0.0693800731765232
0.0595049436555954
0.0784073811231078
0.069725700938618
0.060528344174278
0.0728682015607041
0.0614309035505157
0.0700625113114322
0.0648715498035786
0.0681361807528695
0.0679978761032876
0.0670405763737093
0.0654551511512405
0.0688154039834011
0.0652216843725502
0.0673683331369743
0.0649114773605027
0.0672008963340836
0.0742632756993053
0.0657159987416167
0.0690691874725294
0.0697713246325014
0.0605827104186504
0.0815981436369554
0.0631634728631578
0.0747698356095811
0.0679096125242473
0.0682259726321193
0.0696966208766504
0.0704816155355422
0.0680813940472721
0.0717880688951832
0.0693692695419327
0.0674690634250883
0.0722438821401016
0.0680599962429511
0.070316331106203
0.071127431765734
0.07120853948383
0.0745222858156243
0.0682434612413811
0.0730433023234985
0.0707938473604197
0.0699937327554102
0.0724797105782541
0.0721138225501693
0.0723985474081105
0.072660956173131
0.0792885106612674
0.073912195714947
0.0763804276637329
0.0774388544955413
0.070403885899301
0.0749137498419087
0.0733477682835314
0.077620478614551
0.0760156105648167
0.0716693427778763
0.0916967061376435
0.0643431913720302
0.0931198878580427
0.0674540424074565
0.0829157163625978
0.0695127609364826
0.0841362830331016
0.0676810818067643
0.0839443897247153
0.0721514313658426
0.0797527990780791
0.077413925141964
0.0780775335881232
0.0799148241865485
0.0757748496636339
0.0814322789566675
0.0802395882707663
0.0803737876085834
0.0797545431815392
0.0878614541979379
0.0740342997531427
0.0979094361413407
0.0834084880380485
0.0814228187337961
0.0870751678731631
0.0765773345117278
0.0985842167463258
0.0778209439874448
0.0870513633192624
0.0847380790163905
0.083703450680555
0.0883617703061918
0.0790962157714676
0.100542457191707
0.0893106481890163
0.0831034500217778
0.0936469720105611
0.0844874044673041
0.100217858916015
0.0923963327438141
0.0895479096027268
0.0906915437222434
0.0984744492845465
0.090580960294974
0.102824007385666
0.106255821347544
0.0853591890018088
0.116573694871053
0.0922712713925758
0.112491702298457
0.0938985903352931
0.109234202255117
0.0987753407183329
0.114938299055537
0.101627935609313
0.111654777458358
0.101666676595867
0.12473135726024
0.100038021738952
0.119119667068548
0.112062176549143
0.118483670107584
0.122158572517946
0.142939082821294
0.118072581396574
0.128491964923941
0.118674501393504
0.138706346825182
0.126782454967109
0.128617657911469
0.129715936705189
0.130758642223387
0.135564352517519
0.135590546664504
0.137548747345924
0.139278032320692
0.134321791459369
0.145301362303671
0.137470538161113
0.165972318365529
0.143205257246146
0.167252016674576
0.142937551551901
0.162383242259389
0.150697264595878
0.153269296745957
0.154754171634058
0.154988209961533
0.159262782616833
0.161931116065033
0.164466201173852
0.165080834438008
0.168691717398327
0.181232176684303
0.164122742878563
0.199895404789513
0.172543244955743
0.199091677358072
0.164548078975716
0.255445489749877
0.205155817108069
0.206957973612753
0.229956384345172
0.215912747075705
0.271542933720573
0.236587562665495
0.247404690336363
0.255959111658214
0.257973110078997
0.266698582578606
0.285197208965582
0.289455081413217
0.298703342333678
0.305654357626157
0.311739716321905
0.318689126735031
0.35424923181179
0.351174066226549
0.360568418676237
0.354893246510521
0.377507159976505
0.387337814950231
0.389937253190654
0.395271211027401
0.421036608572787
0.40223045053009
0.471028414821634
0.436914497612997
0.460792143204657
0.454380580641821
0.495016198234463
0.486096272031253
0.499280517057736
0.531401676741061
0.505096568176621
0.539660874543255
0.528219610030221
0.559109389966551
0.547361452474467
0.585773897744259
0.586623177202322
0.585183957620905
0.597414508423403
0.605614461921313
0.610320269242146
0.610747385183516
0.630006530844099
0.629032524085536
0.637316271926301
0.674933212293867
0.64536833851663
0.677980615163924
0.632088486640491
0.654394693586286
0.630402966166045
0.677921504845236
0.648104321676531
0.645339196593565
0.687610898485957
0.654934710650088
0.658445484625675
0.652421897733869
0.65760786165388
0.66955959556594
0.667475468277049
0.655598826004956
0.658760982920951
0.679664999376945
0.624651957749839
0.703616101191464
0.6382844237951
0.662200492981722
0.657811618983617
0.663805116850423
0.653226438891676
0.657167485759579
0.648509603254891
0.679045838758677
0.626817393351859
0.630017203554425
0.610618123208513
0.618719727938492
0.629402720746394
0.600810785688595
0.609743656104396
0.594748300878987
0.568949898039916
0.575846397585162
0.557189199186126
0.606019105841104
0.560115737870083
0.559628951010443
0.54436601943624
0.538451570390513
0.539261720224159
0.536105670046641
0.520128716728258
0.522996090939582
0.513924782082982
0.51878728449414
0.514767435520267
0.507434612786764
0.506097531027955
0.506700280332546
0.499581666313919
0.488462878131744
0.487090025528687
0.488312001432193
0.492270979250337
0.486152226744941
0.48018271428954
0.484057763724256
0.484082392767964
0.479081547175891
0.47867097835517
0.478131287081302
0.474802208244509
0.47323614489886
0.479731680470331
0.474074550191574
0.475797802009098
0.473695357246526
0.47116345010642
0.471234353388743
0.479102293214017
0.471964261207324
0.469414822810872
0.467619591236688
0.470293569127666
0.458333756642251
0.466185117212074
0.469222308251128
0.463038887571943
0.487550469513038
0.457198034624025
0.47767661986438
0.455425371637501
0.464505278241624
0.458762559816074
0.46709571425389
0.476588424989328
0.456151819847323
0.455674381348165
0.453103091248881
0.441858327275842
0.455753894218159
0.441388920885996
0.4498411310233
0.452215018216796
0.434021982197506
0.496777303644934
0.439760234924814
0.50899345937606
0.448240293774807
0.45326334048803
0.441085732558725
0.472545690704771
0.45179738938766
0.451534309237817
0.456838366005457
0.442478159918937
0.468210887454628
0.448338201121673
0.45342195226144
0.444401796838356
0.449104731830839
0.460800242845568
0.447032974655497
0.43887022147983
0.452788513347473
0.441182088553038
0.447431981819572
0.469028020864766
0.449205808967675
0.428933443622948
0.416415019779338
0.425132405253939
0.417422459754513
0.429688980287676
0.435130422200435
0.407858020799551
0.411527692149866
0.400284149613227
0.405416555437339
0.391359560504101
0.405922918760293
0.388731378456252
0.394877605916686
0.387726250199421
0.374606376661977
0.401117958857727
0.371444412901444
0.393115254349822
0.372317126905252
0.376403147782904
0.362703414172494
0.388103513088208
0.370087759484839
0.361186364277073
0.357734068790811
0.353897550228207
0.355453474996457
0.348379053203945
0.334781307133587
0.35063645653021
0.331637017336981
0.347674630961111
0.351727527874368
0.338913209072427
0.325946044064959
0.317961469820065
0.316597388251961
0.318258610815098
0.310168356119851
0.320119321019845
0.295339373329766
0.326109321806058
0.303352385429864
0.329288595007749
0.318887675736619
0.312143314597239
0.312909668784334
0.315762591783224
0.314123247737813
0.330808849138831
0.318076806044094
0.333901872475416
0.312192946186922
0.333283118849371
0.327611102539793
0.334683542826087
0.333542642748604
0.33780103770429
0.336568784070772
0.351903738084391
0.358613546444942
0.358608818458185
0.364288503108346
0.383953727426641
0.373516539966272
0.400453709560763
0.393535882478798
0.399572255147755
0.432849843927236
0.408925640836506
0.450589371146003
0.431744717303741
0.43781775928572
0.449164040748398
0.457163377621289
0.464987030093456
0.461786778415352
0.492389114220955
0.487340768742771
0.485068700611404
0.494663935436847
0.494255233855675
0.505723989144189
0.503179579525973
0.531214367637915
0.48274967168711
0.537986566888122
0.522459103133568
0.534108103729043
0.533657395637366
0.538837028574528
0.544049823415434
0.531709640022379
0.54358192697576
0.539976809600895
0.557528214460576
0.55704537202205
0.553626827847922
0.551611058873327
0.557973940802647
0.561903364244545
0.554556279003447
0.565293063164506
0.568916628952731
0.572189326529601
0.57690904991077
0.571974577876136
0.602115756843903
0.607045838449637
0.577898908948386
0.599808485125124
0.594347119455338
0.603510388261696
0.600083075353174
0.610603605626913
0.616112049720154
0.608063660713335
0.619928839223023
0.626641428700235
0.62941920588185
0.620333459237086
0.633804524677875
0.64618265567032
0.625459634281861
0.654829946469793
0.644012767839412
0.669740824708524
0.656366989304845
0.661324210614268
0.670064668490951
0.661128323401304
0.66268063308677
0.669081340459232
0.666542004079075
0.670452261585758
0.670812368204933
0.66665793996251
0.675024056969566
0.663406978701694
0.676384078989077
0.678437868222124
0.682422503777931
0.676991083160246
0.663196272522222
0.670902656830942
0.666346640843019
0.67716912402697
0.68200582070058
0.693338631849089
0.671257913104887
0.663975351503387
0.672504198537812
0.683072168669414
0.67945260347361
0.663992127022044
0.664717123069088
0.670045176571791
0.6669255341787
0.670138319352384
0.669993469645822
0.687986182013597
0.683463599658936
0.670263955895023
0.682691711399699
0.683206491283175
0.689735104891882
0.688079397311616
0.69219420548882
0.692829651075895
0.705480489537228
0.695108767916661
0.701552645928638
0.692743058707894
0.700785157066884
0.703956587833946
0.702027460220649
0.69797741953856
0.695687105642774
0.70027280360967
0.697864838730571
0.687710679920669
0.694033381603886
0.683576737164584
0.682488574493531
0.666450141738195
0.676349138787545
0.668267047122248
0.656628218915574
0.652207382744499
0.653673976651097
0.642884688822762
0.648188090441852
0.633949086297229
0.636900763858991
0.63536955047401
0.627066126840179
0.619470589194198
0.624642349928292
0.618919942069626
0.627442204641805
0.62187508465125
0.616470607439904
0.619093221612353
0.613243358417872
0.612232017839961
0.614703894880547
0.606452526126132
0.611712135285728
0.607024634500244
0.610240714036739
0.607885628016011
0.610837188890756
0.60273034003411
0.611141401491466
0.608411375176337
0.610445748988167
0.606286494139693
0.610146832033865
0.605115866498079
0.602810116319668
0.609096199129853
0.610361099078942
0.605231001302209
0.601402685068837
0.603781978167026
0.602555618308378
0.59915154954619
0.597817040984794
0.606448481228723
0.600959602145207
0.60339397929339
0.602635749859476
0.602797904002324
0.598471045492139
0.600558181397671
0.608248058683131
0.60470933493772
0.599176938664922
0.597266807956907
0.603283059223471
0.60103979549873
0.600489553158064
0.602107994466421
0.59642354150839
0.596888569986247
0.607143052497857
0.600575967388567
0.59673561320317
0.597922780198325
0.590874842625097
0.589363188489964
0.58851076456656
0.581766259778863
0.580784892954896
0.575651776423932
0.569583399057117
0.568862657620617
0.563655161032898
0.561500783240792
0.559796437920738
0.55296089078238
0.551732449204553
0.549849950128913
0.542062501584779
0.539381980355882
0.533735498876249
0.531882862531658
0.52855487953691
0.527255531604762
0.527458049999898
0.52910819063704
0.524821659365659
0.523665398734426
0.521588628950386
0.521763262888177
0.525495535559058
0.524398482200349
0.519548058988273
0.51926037499975
0.523441256050866
0.52249277335079
0.530641252108084
0.533131980545871
0.530962496991131
0.527636058462854
0.535165774791645
0.531921178529439
0.536932199458507
0.5422746554848
0.543127762098638
0.545712269001531
0.543205114995554
0.548154071850315
0.551659574263241
0.547575168027535
0.555380205308837
0.554128758471605
0.555626636086802
0.554419746662187
0.555010335162967
0.554676190062179
0.554335110340363
0.557732063239169
0.556747427501474
0.556799918832185
0.552953890446298
0.55176163498215
0.55390897540027
0.550762444768165
0.546575737317578
0.545590266551085
0.546607556532651
0.545254871216445
0.544390617736698
0.54402532220077
0.54565674105118
0.537874858572275
0.534972456791298
0.539111048629456
0.536409059326606
0.533934748183054
0.530371602893289
0.528520836750293
0.52933949015578
0.52799111634698
0.526846526290651
0.527713566330318
0.521733148322102
0.518617012010617
0.518431639420492
0.51972837351976
0.5162884020474
0.510122449214043
0.513347493993542
0.512148556070353
0.509475487447498
0.509868332772804
0.504690497781789
0.50387778314167
0.499498928474566
0.495054897926228
0.496491829571559
0.491801018680713
0.488521603197914
0.484148739652594
0.479913066683182
0.477222791453044
0.475693110347827
0.468460374716509
0.471037280655257
0.468427069124354
0.465529256765274
0.458058611631023
0.456529975114539
0.456640629725055
0.45598147126821
0.451241023529449
0.451798833702894
0.451457316133306
0.448462835499389
0.44679227982981
0.448007277200304
0.443222113040198
0.441069091067035
0.438645725228142
0.437125978576284
0.433382051388051
0.42989998982442
0.424677436537477
0.421718264914571
0.413455348556049
0.407006978612942
0.40352894835904
0.403826857916185
0.396093545860705
0.398356948487914
0.393580993756361
0.396316166353718
0.400675070792422
0.403383710156514
0.403286787525708
0.415119096953404
0.424597878222663
0.434218695404036
0.445375536932029
0.458079214670018
0.471005801472365
0.486005679790224
0.506223551890358
0.526634012230288
0.542015925469939
0.55830781370597
0.579258210159409
0.595779092176531
0.612980807944737
0.632740764626522
0.650436833873413
0.669064323287639
0.688472319639005
0.705508010725943
0.727790075642754
0.736657364675579
0.752754638462237
0.76555664328956
0.785352985958818
0.7983873470507
0.816760592036349
0.832816070962983
0.838141401950204
0.848847455425567
0.859250253485996
0.857437654783468
0.876318681438083
0.881140126521217
0.874292036133145
0.883041332833456
0.885947813386595
0.894704861897041
0.885880638742853
0.880853463530755
0.888266803897482
0.888516674340433
0.882354135904035
0.893227675971664
0.902364230702943
0.899033149029058
0.892059443499188
0.899960640242508
0.89379317024194
0.899875963872206
0.909276182122062
0.909208710413898
0.932586954546079
0.927255389661993
0.929073805320423
0.938327377728804
0.939327634237434
0.948900432790544
0.955672447384449
0.965871373704047
0.98128168986507
0.996740522503702
1.01519214307503
1.03237678220713
1.04009602032487
1.04973114459449
1.06590302109841
1.06458585063312
1.07473444263026
1.09354371984601
1.09273887607003
1.0907793380108
1.11748054154419
1.11725101828577
1.12645101313084
1.10256403541657
1.11144003483929
1.11847626263304
1.09507436334941
1.10493499282056
1.09928909802796
1.09548556266588
1.10608836248364
1.10226628096107
1.10968976169171
1.12009076821618
1.13379811144342
1.13313363499601
1.16396672708083
1.17917035638692
1.18239274368497
1.21379665826307
1.21673111907447
1.23256811810609
1.24374495410454
1.2405415041462
1.31737507890856
1.29287051096042
1.32138529531574
1.34182808296303
1.34881315706039
1.38471818553675
1.39186004964251
1.41612258841503
1.43784444855798
1.44213218895431
1.470404605129
1.4921548677073
1.55556165214447
1.58752888065613
1.5685859073384
1.63911854548762
1.61729217567688
1.60912765028723
1.70367177322738
1.76424331978374
1.72542756471335
1.7098511814984
1.72164992775631
1.75545498672443
1.83105229883378
1.75785462207507
1.81460175473007
1.77570881644625
1.77075536286333
1.83901464724002
1.85067858609725
1.79997248214608
1.81296978759484
1.75921498091967
1.87731775376764
1.774838777798
1.7397718217773
1.74138945018259
1.80255619243316
1.74698144257643
1.88106297946472
1.72940585935916
1.77155154743286
1.79677774810357
1.88605634511098
1.90783553913915
1.84819199537072
1.81311660636662
1.84533946962971
1.95028151063574
1.9721951602103
2.0054482717316
1.98432579385642
2.04136617779673
2.06874220100764
2.03274456213358
2.23950067651552
2.16267598052076
2.31775366196088
1.96440855549367
2.22136659545044
2.04039317308227
2.15874119946864
2.10397711467274
2.01534683524607
1.95883782022917
2.30613697002623
2.10152385238733
2.40256993091823
2.2849258315727
2.12148208224113
2.21827524707517
2.36720852605891
2.08212662550648
2.47281889217821
2.34263878251433
2.15528772506346
2.47332307396748
2.2708278019494
2.13289652995261
2.21919874298823
2.14011867175376
2.43859287248806
2.10920068347716
2.44250693042662
1.84349195071414
2.07129349908386
1.87105418326666
1.96268230960116
1.90283992668433
1.79928087195914
1.84260470442345
1.80718500576365
1.66735405337228
1.72729691550436
1.62220374378083
1.67817417358738
1.51544309379735
1.54781832029973
1.46314710291564
1.56000027593143
1.45671411679169
1.49256991770598
1.4192269838351
1.46759645471122
1.44738243529154
1.41949989770876
1.38426201082635
1.45487517339772
1.36482092224667
1.35213280965975
1.34664110120548
1.33087811488339
1.27590098855796
1.30094125133769
1.24013990721078
1.2369170824039
1.20403439544474
1.17356045455029
1.11298049542702
1.10581096140538
1.04790194550662
1.03688433604849
0.991230634228059
0.958137137371264
0.903443089919485
0.873840207985731
0.828886137724572
0.807393021868644
0.75871188117368
0.731139091328321
0.702209676581316
0.681839833573998
0.662374383962087
0.633357624211415
0.611175836958675
0.595032443555163
0.576094912543543
0.567235541312787
0.546128404346357
0.535207879875116
0.52648129044711
0.516551172921415
0.513502226252529
0.503822474427131
0.50195753440163
0.491526285053812
0.495583376960807
0.4952292127129
0.497123550972627
0.497628135439184
0.492418131201117
0.495695934124189
0.498083833112242
0.501069239690603
0.494079726247169
0.505501048986173
0.507464919625793
0.50286448883956
0.505756390782513
0.500780281854527
0.493598719304259
0.486788379032156
0.490002556002265
0.493433200200373
0.485586570400024
0.48323224540741
0.479277313639035
0.474010565282368
0.475584986243809
0.471549128391323
0.467847884368782
0.469637763417442
0.464930650660822
0.474442344143995
0.474502395172784
0.486282372044263
0.482391000839723
0.485237360380314
0.483145705801068
0.495170450683339
0.492107780530912
0.496981175657153
0.500616838667109
0.497068572034593
0.502253153798343
0.510459695792993
0.505955211833043
0.507246009410355
0.506806986172052
0.514522040383237
0.505009958579366
0.520583109796425
0.516245642707582
0.509611839665486
0.511649987256889
0.521558861161567
0.515138271402261
0.518940521541027
0.527897107405654
0.529866309563214
0.535646916121065
0.54748248290585
0.547513616097904
0.570066887297884
0.571202979296084
0.579335758884417
0.579739628076036
0.599874727747482
0.625764866600039
0.643224872140546
0.641619826047377
0.656766960842154
0.665471335620766
0.683942453875487
0.673539799870996
0.677338030137838
0.666092306601576
0.6678065564682
0.65186077939932
0.663528857988797
0.633803165735091
0.628000748308076
0.60826908531792
0.604470924568111
0.612854108258537
0.611450824080556
0.594559645095507
0.606196983782494
0.606833147926066
0.61204574278404
0.611255249479377
0.610894498652577
0.616799586475444
0.606221690353923
0.592982654829784
0.598031042275014
0.583464346159492
0.580183396353518
0.575375118932154
0.567500404129587
0.551907041811238
0.56763990875992
0.559588542304364
0.568204090395819
0.554601987302167
0.551190703428304
0.552481056262033
0.554825993307442
0.541515191711134
0.54851020025821
0.539462783669212
0.548390997701117
0.524165779030436
0.536610273110819
0.530859263050483
0.536221394488821
0.519499671077303
0.513979896050227
0.520088930219562
0.521401700485546
0.513933772916306
0.513438421942451
0.508532970718956
0.513468226769568
0.504427236338483
0.513354358696765
0.500580306084777
0.508659761081627
0.500248160888136
0.509874362969854
0.491596534536352
0.492441544544212
0.492386653830256
0.484911267113514
0.490090904297425
0.481387054225624
0.470795212590413
0.485482751365111
0.488965234577376
0.479784704169089
0.470417256096668
0.468049342351279
0.473097882834385
0.473485642164426
0.483153939648762
0.493198517485452
0.462761543113578
0.485987094273073
0.480998970547875
0.496165957601289
0.491167593108875
0.480725885901218
0.481054690980731
0.501332433875489
0.485500485808574
0.491675614996509
0.496897715755477
0.496143563924099
0.495457525697879
0.507306134076311
0.5099860047663
0.517751705467474
0.49318364581735
0.513339525898456
0.514325003992759
0.532026608743608
0.510218997082917
0.545577359222987
0.527119615613845
0.541396539005924
0.547679820192775
0.563224148797913
0.568620812702032
0.5584218823695
0.581691922822527
0.589120209574368
0.596847240387086
0.617075183751132
0.631324492131564
0.659552294442837
0.645628921038146
0.705085418436731
0.708441243490986
0.740065575535558
0.718902178528628
0.765097669249283
0.747748182650987
0.779451919800933
0.784917225664381
0.798501677027042
0.808643605959606
0.828167140687841
0.801083516462438
0.838566878546354
0.789653637350264
0.816327308560304
0.775360574254746
0.866590168046061
0.818139739934804
0.788638001999538
0.802690907852118
0.779400867181833
0.755310196937832
0.77703979288021
0.752737384265995
0.77930765172968
0.769225182040918
0.764838751147892
0.75417918119996
0.767334607104668
0.778841861503793
0.763795290013257
0.761429619970893
0.793023199133433
0.778207837660627
0.838501476276332
0.745905557428189
0.729877632498875
0.75124909735718
0.75853055515913
0.703512555238612
0.7766095149958
0.726810323036349
0.736670251523775
0.749359780347179
0.757326988539607
0.659175801091404
0.756779633031707
0.765899155897518
0.766663450952868
0.698055999001775
0.747638357258803
0.733577853344653
0.660706866039512
0.728476120704129
0.716546453922824
0.70344982548937
0.769000767990409
0.723649725475186
0.723971252486153
0.72271335784955
0.755828616822509
0.721113075471076
0.730238345809943
0.754635510455106
0.722849240827728
0.702192820923847
0.764415943228612
0.73547580759731
0.773165625032176
0.728567682943062
0.835008735083106
0.833482941279163
0.865880282166807
0.735048206007566
0.81777629570556
0.794010222086543
0.80660489247824
0.81309117905277
0.863953760481293
0.79315922486609
0.871561685049549
0.80364276061095
0.995721949028684
0.852467736021268
0.876787034145571
0.875629217262505
1.06503220890168
0.848402059032283
0.998758551685175
0.915414310908812
1.07900807533432
0.944384738116451
1.0562648373633
0.899111025177567
0.914819279887103
1.03924941676716
1.11488328617333
0.946528251267659
0.982993313374467
1.04458430949899
1.01512640234854
0.963329558652987
0.929065245764136
0.913311401354315
0.936307982352361
0.866250434749816
1.04950485803706
1.08181352252371
0.958663832713873
0.86596545547966
1.01315846428412
0.943217880133027
1.00194553959799
1.26315568890525
1.2632698935473
0.898923997571179
0.769625894434424
0.832497995714688
0.988342119470161
0.942884248094403
0.80799564739445
0.792153040413492
0.941285786083368
1.1850988583785
1.12075746577615
0.8779870352661
1.41499080409923
0.908058856084795
1.05681296417983
0.919514203074797
1.17771211638494
1.14070827161376
1.04726870441614
1.19185225299783
1.6628359862545
0.517170663975331
0.917956522899952
2.49689414625021
1.2289267650161
0.915123818710251
1.62401964697165
1.27622727138592
1.2400370212638
0.959475235324949
0.688204029226367
0.8380386084909
5
1.03265390563538
1.5819827390235
2.05444699863473
1.07279389767267
5
1.03204562632464
0.565246499083013
