3596
4000.36533379555
650.420452594757
1
2
2
0.0695069183478785
0.0392132277889716
0.0582559329752818
0.0422583986943584
0.061438983357753
0.0369382675717432
0.0594154451119359
0.0493841255878674
0.0544607604796789
0.0385950459117298
0.0583744884516889
0.0440886942475344
0.0591807666444181
0.0379745097149905
0.052938007861247
0.0409872610780488
0.052925189822333
0.0445641095912153
0.0539606011081191
0.0445536561430866
0.0561592742257412
0.0461331081483308
0.0656640801081882
0.0399579368759243
0.0550246995990873
0.0419873693971079
0.0547536043953662
0.0449058508419169
0.0615245812384982
0.0393111298476431
0.055886872550083
0.0383341300671342
0.0509928166017747
0.0520161837845141
0.0576709258456368
0.034899965769202
0.0460357430487302
0.0425209327083621
0.0642238227756565
0.0471441310186668
0.0606057565249308
0.0443994423021057
0.0548162815745323
0.0443842074438142
0.0509853343891897
0.0432182546535713
0.0515466165274502
0.0435277707617867
0.0593407924040973
0.0445790616084021
0.0531137559738307
0.0408573610944985
0.0617897146199617
0.0450091728348324
0.0465458882563979
0.0392022235821255
0.0462523588406471
0.0363958498157266
0.0580712540358921
0.0465546780685368
0.0613110438167498
0.0520876142120578
0.0497716215575024
0.0430083760003989
0.0552104525461837
0.0389603406928438
0.0578380151290111
0.0479280617772482
0.0500933861094928
0.0500793673539935
0.0479451233985609
0.0421344538914907
0.0533416440449354
0.0328680181058231
0.0568168590542406
0.041015636636867
0.0502787108009456
0.0387447723510156
0.0474425677766779
0.0291717744070913
0.0534390276726453
0.0288898926955411
0.0503953176102506
0.0397272530463845
0.0376764239983148
0.0372780908441185
0.0553432357548035
0.0310500127864475
0.0656173330418449
0.0368677796805092
0.0468955560745394
0.0402678434114238
0.0515667681896976
0.0411335567639475
0.0529608892617429
0.0375990294824708
0.050287460688647
0.031446695775455
0.055904302851883
0.0292875867892521
0.0637376912509841
0.0251808251493879
0.0766491522413891
0.026874675074489
0.0472823895485919
0.0503368459081829
0.026776136845561
0.0459407792897359
0.0523747154295621
0.0440496672323598
0.0371020195616577
0.0352182359071634
0.0451488480954927
0.0336439785053831
0.0546771351046872
0.042745038776493
0.0576473583135886
0.0328143025996043
0.0500157969337669
0.028702595679777
0.0588756897676594
0.0307815942597187
0.0676971217839926
0.0225958903869549
0.0585566962624379
0.0381006128642356
0.055730715631874
0.0368690598498572
0.05351233359653
0.0252708979609591
0.050897222895039
0.0349958500552501
0.0604395065118511
0.0221227776595212
0.0727562058171711
0.0303671522833891
0.0498300702250494
0.0401637110922551
0.0453939270039692
0.0316886834287227
0.0411917827921614
0.0377858658325609
0.0473039889119988
0.0327496891526597
0.0709243909200955
0.0240605610055202
0.0487793570393241
0.0374338331008956
0.0497672568861967
0.0191556102741721
0.0467124034299424
0.0365598474303147
0.0483856330633767
0.0331407512975727
0.0663960791121144
0.0119003000234825
0.0933944045047066
0.0121415261443702
0.0782114088423997
0.0206851440016278
0.0486750989249131
0.0290338417650638
0.0351810560342612
0.0384675041343383
0.0435175871159263
0.0381237733161229
0.0465074956905871
0.04883678834012
0.0456105439525628
0.0485258489872549
0.0526067625503721
0.0415784097324571
0.0461247137464338
0.0373475764829548
0.0540503756080478
0.0133608104348717
0.0650639091985093
0.0252195047403272
0.0483615751735595
0.0229549899870499
0.0535623562303874
0.026856681719776
0.0469935905556958
0.0322763860366321
0.0540525422505243
0.0246060311575629
0.0507600843533135
0.025267973501063
0.0540982507135256
0.0402327269615499
0.0706559667228134
0.0177507360268856
0.0577313663989893
0.025693719040009
0.0536545033862328
0.0361226471648622
0.0517749647680564
0.0387737354008733
0.0371938880007408
0.0364317682953084
0.0419526923772355
0.0278194730292034
0.0518036391019547
0.0294816603141545
0.0501242111152324
0.0303075037244164
0.0492807201825927
0.0354357360821792
0.0425744445083707
0.0336093981384247
0.0532645799703153
0.0363893487368924
0.0410349533890685
0.0418504389238396
0.036437130723779
0.0421562098036741
0.0422881308650598
0.0437776978362364
0.0471818874007508
0.0288965216011357
0.0434677731873389
0.0352757479859078
0.0495550854764747
0.0351654897149482
0.0420841731895734
0.0355413106633466
0.0405451205684727
0.0384579595204689
0.0496738875090365
0.0370915018088971
0.0444998806296425
0.0427046879798005
0.0502826384177322
0.0369033004356778
0.0591076014252968
0.0470597068236762
0.0630258493920025
0.0330786078191717
0.0467636566246497
0.036450412211734
0.0495826169380822
0.0278966670526179
0.0493047922755626
0.0309564331418866
0.0470674760801085
0.0401456205293762
0.0461248320782512
0.037612842003593
0.0437926182435629
0.055282140863863
0.0326630073178233
0.0590446844858067
0.0360674718024424
0.0412060676810068
0.0347817138568342
0.0581263453310974
0.0384389228306122
0.0409527238476575
0.0522752771929636
0.0551263236428173
0.0403910439425498
0.0453431536251676
0.0461277062117867
0.0477936388161914
0.0553352514244507
0.0302851647053341
0.0697311816893149
0.0405743934159798
0.0521658598405251
0.0462519524791274
0.0439058736667205
0.0582369106869717
0.054761986390753
0.0177992342937494
0.0488440972571437
0.0453263043058551
0.0492584257668809
0.0369865717757955
0.0503889878403764
0.033639739493699
0.0715759292201583
0.0397119142042393
0.0918838020020459
0.0499302411731043
0.0382503219500294
0.0681371658373266
0.0473835393854269
0.0529589305391009
0.0316121588630774
0.0463360031375456
0.0450901162891088
0.0574623462736116
0.0412231968151291
0.0583339376809636
0.038184100048844
0.0569623829307532
0.053843100276661
0.0479705204524504
0.0499350225123088
0.0453668079008732
0.0540209202318303
0.0532715108805365
0.0469289899788823
0.0491370293299521
0.0572045557908292
0.0460147136402733
0.0646875512187602
0.0523707607486619
0.0600552283944697
0.0614887260722409
0.0511824392406716
0.0456610087250514
0.0562496116266408
0.0512416304873011
0.0556462296095082
0.0557518839624614
0.0553247660141933
0.0506874799583506
0.0638743798360889
0.0473132371012062
0.0576433070548404
0.0507055628508415
0.0679341465240079
0.0521752636003422
0.0623009981067763
0.0573532933088599
0.0629068364363873
0.0568225853572522
0.0619351254396556
0.0714306410366833
0.0617417295794062
0.0555590855145072
0.0831717430245091
0.0441921978124317
0.0772672422786653
0.0536014270327812
0.0720250131184082
0.06659384724536
0.0690602177845541
0.0626841133013046
0.0711720278423689
0.0713519682495257
0.0744455143466042
0.0679543598497457
0.0787351523682401
0.0786225820402597
0.096618204361485
0.0848241089591892
0.0780397009641613
0.0771677888314939
0.075683913575124
0.102683335661626
0.0612534673610974
0.0988069527229963
0.080128934010978
0.0774375187686425
0.0890301827492781
0.0847622262312518
0.0898001172303463
0.0823936232967852
0.0977450716570451
0.0789735157349138
0.0966069123002672
0.0868058514230412
0.110822771972864
0.0931985372034389
0.10835547686694
0.101136321433502
0.109267398636186
0.104911059253579
0.109730095992974
0.102176054476949
0.125698529437658
0.106184138886091
0.157102940230395
0.097761248539904
0.138919068779844
0.112492749927077
0.1288215929275
0.122791557938946
0.120392952358571
0.129962564301754
0.138122329471566
0.131732941358881
0.135579888069429
0.132557661860373
0.135419048352572
0.146919474380516
0.147584539788946
0.14558466473662
0.153016289167293
0.170262170821754
0.160333837106636
0.16306890629234
0.149899919936789
0.173237483948056
0.162903115999292
0.190199279491443
0.160706045692562
0.165898796341841
0.170252862416257
0.180304070966454
0.175465917497237
0.184739203170547
0.192631157720505
0.189153500490214
0.201881184298419
0.192323376091831
0.210656343444237
0.193637669302811
0.194056715826915
0.214361052057945
0.2046768649569
0.211193904527269
0.223094055768336
0.225132041534431
0.206717320190956
0.233330185446886
0.228022390072362
0.244609111249813
0.235651099926813
0.234012751279146
0.247910095608553
0.231808996924427
0.248613738623748
0.245382450559807
0.258435167960359
0.243975900953059
0.251242034091103
0.251196461308985
0.261170155984063
0.264000566871671
0.281269442843549
0.276414652091055
0.282378840158979
0.272796532864201
0.280127468335835
0.296103980838469
0.288173096918407
0.309531340530295
0.296344178402545
0.314456833619046
0.320416415931881
0.308161823774529
0.314576672970799
0.3127488519302
0.329631927910696
0.321960829489948
0.33058210371745
0.352386499393584
0.344284950993067
0.340295863888937
0.363908866057223
0.343654634882302
0.34970511884189
0.358613528012632
0.365229675029548
0.371921728512761
0.369738486216099
0.378126712656538
0.382128573240577
0.392078820976545
0.397368197087475
0.429998853471953
0.417452600601918
0.386439288361045
0.393969214607296
0.402070358187567
0.415108123147574
0.406448821553101
0.424564217653258
0.415182372552336
0.443489946128176
0.442041065972441
0.437388886545053
0.441513551149003
0.448034838286903
0.475143873741077
0.46859395229409
0.462282049051891
0.459126140916163
0.476493559966715
0.486007402114494
0.491416210354467
0.492670447300384
0.490808708102273
0.479435072624908
0.497692332293772
0.50400595407206
0.502748550478193
0.510581583559818
0.546966396935622
0.536856030871605
0.524784372948869
0.530003504018492
0.553330076242641
0.533709483176612
0.571343454283616
0.578461850877539
0.547847139498234
0.536831060106786
0.57155059060078
0.568408495706518
0.595519252412746
0.552790739457952
0.588158929723435
0.60390018711494
0.59809766199601
0.59881972939625
0.587445993170542
0.602517020918282
0.649701464516124
0.658241157010568
0.655946934861242
0.613655069486695
0.638057243092576
0.626154791568569
0.655935282430778
0.65118357175033
0.635073329224369
0.629565715233359
0.666471995112635
0.679301822979636
0.652916134940345
0.6967213405923
0.684323069250061
0.675791104379682
0.704098180916381
0.715178365274148
0.716691968727817
0.715066472259498
0.737163999600603
0.68461512330634
0.773699962848032
0.755318893120873
0.750773710617463
0.722683355742305
0.749882915168801
0.72239037418636
0.736828785040209
0.785061618030895
0.79249819934452
0.781422702400794
0.832015116289728
0.772746672680634
0.777060155533958
0.796243657984828
0.801108672860462
0.80814685903888
0.833968957128175
0.794461188427442
0.803894546528215
0.820218761973358
0.84472781301648
0.817716178728947
0.884354547646385
0.797057552167977
0.837842882583766
0.858874318163258
0.909751543986582
0.853684162207623
0.891074699545648
0.857951082097041
0.903952111371299
0.885366359838433
0.94357491669814
0.880231150323803
0.863650375981804
0.798132037207096
0.940409804953443
0.922317263490728
0.923247239345357
0.917474506557202
1.01521269871455
0.919839429514756
1.05860556834975
0.94688932154056
0.967463749347165
0.869481147221022
0.96446582321453
0.961905325345086
1.03019558644155
1.03503623487006
1.0222104428911
0.967897250025209
1.06392908503267
0.970783541553867
1.06553436897362
1.0459115176038
1.03196174066019
0.96663660688717
1.03856897228339
1.07100353396446
1.15768696733963
1.07101925633337
1.07724014551036
1.00248576577696
1.06922382037557
1.01683195972527
1.09738995683529
1.00628886868993
1.06682644482692
0.997303112010686
1.0791795804721
1.13607453532266
1.09775657537731
1.07766465597017
1.18554423505887
1.14196164943839
1.12040936656491
1.05119614430384
1.2167460554129
1.05360562961511
1.21058107842651
1.09073485840474
1.12841413328689
1.22066427089082
1.21736854701306
1.14791144805825
1.28314233887343
1.142915839612
1.21518990867347
1.09637643154764
1.2044575002293
1.1884317386596
1.17236915734876
1.10980866219007
1.21401226579548
1.18388620555753
1.25136564455065
1.14699248120655
1.24465379936888
1.12674240085238
1.28697933298413
1.22374075245837
1.26154982873345
1.26051019808778
1.38807739086245
1.26748491625709
1.26801926370178
1.10868124419035
1.23619768640164
1.13196963885355
1.30774585166274
1.24306436255607
1.33339670108831
1.29650030075823
1.30516378091933
1.16680426914792
1.33359209321676
1.20971814120289
1.41346871142357
1.21375286253212
1.31027534805062
1.24107413474195
1.32216203473264
1.22810014873074
1.44881805445897
1.25704045727133
1.30079075786904
1.21174652051342
1.50838699710709
1.30063540966497
1.32064247061798
1.2905816286741
1.31488142741633
1.3134404486728
1.48030317232078
1.32765719608379
1.49592487918936
1.33514991596544
1.37198910454151
1.24579490249564
1.25558164265087
1.33374947170199
1.37975709688225
1.33030837388364
1.47245116128038
1.31349481774574
1.48507579749203
1.33844605731363
1.39983941368656
1.44592808348885
1.38435655318417
1.27989098013406
1.37248981136938
1.34127627721153
1.49062645246222
1.30137764081922
1.4271169195551
1.47988144433332
1.45904267109887
1.34033154033107
1.48759661096054
1.27682048239798
1.49258557433169
1.26150123324407
1.57828391498034
1.50698819095924
1.4824427393844
1.40174009738836
1.49635060165672
1.41598046404119
1.46292054998483
1.31036808230765
1.39166074334632
1.29489782673102
1.53389442391104
1.35628837977932
1.53270946081918
1.49660948481834
1.62893966945428
1.41411525740195
1.39028162897248
1.33597303805182
1.55881823784204
1.39385175652129
1.46228944616024
1.41625798169124
1.40566693078888
1.46947564438954
1.51716991872204
1.39074487215217
1.50467281980938
1.46627326494244
1.38666486734582
1.37787562458902
1.53161533699976
1.35070327259952
1.55939690023602
1.53980010479139
1.36512526945048
1.50129523688771
1.47262217170342
1.40566316768498
1.43461545255741
1.3559209070992
1.4823479313501
1.43071732952023
1.37039201506235
1.33420760537946
1.49880025335127
1.35329676047255
1.57153117954981
1.55150440210991
1.5226912296306
1.46935732928953
1.45076361379335
1.3624188141184
1.43127186015983
1.47580296517805
1.53954555116426
1.41070460909923
1.49397062271252
1.46292845873826
1.33909142141621
1.40208980387497
1.5799058723618
1.46669436824113
1.40889025745511
1.37638587704778
1.60811740251105
1.38235567901062
1.46221275729012
1.44144911419107
1.60758909902974
1.39065628566195
1.47764442888786
1.48535584881223
1.53930099513735
1.47088187073359
1.47655396048769
1.39079016681061
1.42401587882874
1.44059396626056
1.42454029780238
1.40084058325465
1.45935132325351
1.34333131776024
1.4943773102205
1.35407398063651
1.48317316839003
1.55658832164303
1.47920425727887
1.36148935416157
1.50624901227636
1.29425340278363
1.44813746485544
1.35879967700817
1.60176248766031
1.34419555015077
1.47189039935864
1.36124179867355
1.48934511021589
1.36348279977835
1.42319252362079
1.37069384617315
1.45489446258659
1.34944163757877
1.4976247919128
1.45273783451006
1.50219481275769
1.45251319317034
1.33262048291559
1.46949569803652
1.46405205563
1.37029666095924
1.32382073771598
1.47124606159891
1.36561441997709
1.42898866168766
1.46342913530858
1.41508783460018
1.41421883472743
1.36557505067991
1.47265388677333
1.41646332497353
1.37324860308575
1.35595927061961
1.29551387257308
1.31371499403507
1.37047420136785
1.3222039632573
1.43054383503217
1.23967798019482
1.3582256640123
1.28179759550549
1.41821552551777
1.3031352464062
1.37475553875351
1.29491073402932
1.34393243121511
1.40722201663161
1.30574641515939
1.27551358200386
1.29412102461184
1.31173606068754
1.38259992284633
1.30249797677775
1.43332443432484
1.28374969843144
1.31483228009855
1.26296652038766
1.41700612785717
1.27724519462758
1.42006615281638
1.24004771248408
1.32911297951464
1.30394556779553
1.38219455137889
1.18240482303329
1.31917494966378
1.21842647835216
1.26860752200486
1.24086819162499
1.2046235424236
1.25562977920482
1.23172481865076
1.25484192311757
1.28894905058596
1.19996878666997
1.22097108354432
1.16997524141855
1.26575055409886
1.21368224368224
1.24441390710025
1.19204360246534
1.22923529459201
1.15950789630202
1.22664159410811
1.11943545033907
1.19024380915224
1.21489692665189
1.34612471633522
1.21441664328143
1.18024391670128
1.11538830878819
1.20732756837276
1.13864771989673
1.16063022038719
1.12957677544577
1.15809122585941
1.12613484679367
1.20918162644474
1.09053467023466
1.12285991208002
1.10552410830606
1.11034607018381
1.09067754725137
1.08072399888643
1.09449210805942
1.15117253389486
1.06513010619793
1.132935189541
1.06184490158722
1.1111424664991
1.03635665489488
1.11939567835892
1.04117035414085
1.09033654798176
1.05864572425128
1.09758061907459
1.00297334733295
1.07800429806223
0.988657758006079
1.06716396966598
1.00928935791632
1.03538552171075
1.03199627627097
0.986437674836817
0.973827023781589
1.00378549105675
1.01656328912529
1.03106227246259
0.987357601664196
1.00782699102038
0.994951382102767
0.992885483774723
0.978745765819416
1.00790865238374
0.94130059224738
0.994876672082682
0.899783455645607
0.968260281359821
0.949126335292909
0.957205668159371
0.933767154736532
0.937499446224354
0.925528564363039
0.954510421188462
0.913845849668241
0.931422319347266
0.881810783019843
0.885208556580513
0.889747673712214
0.929690017207279
0.885883331401176
0.906339128368628
0.875283779217069
0.866474236754975
0.861581766741939
0.869880905103523
0.869811968054246
0.872777126645368
0.837022365166669
0.843317816444145
0.839779250185138
0.853967803147884
0.849598648121748
0.854518675063775
0.817874674544902
0.838670050651955
0.841605259379507
0.856727694544447
0.80026407043013
0.790810651084988
0.78886380608323
0.795552917003019
0.79443094079163
0.820081513293135
0.771260935432539
0.810154790172141
0.773189427720312
0.794265794685978
0.767996647889437
0.788613258786776
0.757168779590382
0.794164769509847
0.755914168056412
0.776379307693039
0.748318682139629
0.741305702173088
0.742569977332735
0.756880660995292
0.717163485477224
0.743566194887263
0.723731001990355
0.734470721662306
0.714537666256361
0.732198791957955
0.721335216585888
0.727811002404593
0.68362050679716
0.715748315977846
0.706990665373193
0.709953082707489
0.683593536044648
0.687296751483345
0.671973683874553
0.71227747946873
0.677593706632428
0.686959498872588
0.667951666749615
0.690965672273899
0.661797879640485
0.672821121897623
0.656009058623591
0.673780673114163
0.645867298726461
0.656218723076271
0.640760368370954
0.647479442007787
0.646075970120943
0.645259622298665
0.630749982097321
0.639254879003319
0.616189299480246
0.629692085708079
0.621528842393714
0.62551400124058
0.596939982554793
0.616597007100866
0.620192599510379
0.61886921511301
0.598157257298955
0.604759412015515
0.589049846518874
0.60157355023164
0.586042435437765
0.599438320083156
0.579479865298951
0.585528526699528
0.576638955102677
0.593570168121843
0.569218895478026
0.588672319655083
0.562603732779783
0.57210411229419
0.561476180075382
0.570771324921393
0.545365975474159
0.558725841262119
0.549172498184436
0.556886062130166
0.530939587899224
0.54215749404658
0.532042623004625
0.547722375014958
0.532742478055322
0.538121663936826
0.52527597276507
0.52802378514176
0.519338185886448
0.522615381270549
0.5109837314078
0.524646634488348
0.513478364680288
0.527121155256099
0.505607828989668
0.51077951652058
0.495411766273905
0.507278736091879
0.491741499747471
0.505645432661254
0.494777825549078
0.506493725641631
0.489241563355978
0.50056358654841
0.480931932924924
0.491637584501584
0.478131620423853
0.490510391584742
0.469978523363783
0.487828946714619
0.482176876054412
0.491796546521733
0.471266651640938
0.480426770154266
0.461291844961579
0.468352273542891
0.476511144113205
0.480528073727437
0.464530170037115
0.472739894666393
0.470440698747087
0.470434289463108
0.457434681781358
0.475672663285981
0.468029899439023
0.474915536197366
0.457681245204109
0.469906278879586
0.461986601460726
0.470109787998838
0.459766132885455
0.466048901835858
0.454489154724372
0.471383158646882
0.459687151162229
0.479342284232062
0.469101190973136
0.476759101133479
0.471290530522238
0.476442650985521
0.463108393914934
0.472514458377345
0.472047481460983
0.480177082788582
0.474590406633835
0.487937730261761
0.473767787428969
0.489172745181101
0.486242176906328
0.492622874887666
0.482641156198807
0.49544588066846
0.496482396180516
0.507964270287152
0.49564663770285
0.506375418486344
0.50401735336256
0.519420318140554
0.503713577436237
0.509809763316406
0.505096364185385
0.52917250349667
0.518865151771057
0.525836624078256
0.525280428029522
0.533384851759076
0.524912928532759
0.534858214978456
0.523953074890001
0.546173397844393
0.536700762396881
0.551883194321217
0.54190083933655
0.554127379453754
0.546806503988407
0.558085918991805
0.557217622969708
0.565524496668879
0.55016665356897
0.57049629109242
0.5755500347358
0.591610913077747
0.582598244403253
0.60063877087289
0.580557326079798
0.604645005604044
0.589922260734521
0.602668958694144
0.583038664105136
0.617408643866461
0.612642855293586
0.623729253653582
0.60490585684471
0.610130145975701
0.616066240530548
0.617985719998564
0.625460480037837
0.631794938723064
0.605989419411042
0.610823751450518
0.619725183090098
0.627750978947807
0.612736947818618
0.624996694175407
0.61734405699355
0.626795866481244
0.611787662089856
0.620357945454384
0.624137094649701
0.629475412510096
0.608190849008907
0.630298473309109
0.611182828185261
0.615538240375019
0.615361555051984
0.62273713483683
0.619312468795354
0.609973856063208
0.600725239681226
0.632036848923366
0.601719282410463
0.622242662130688
0.60766722466624
0.612819975024447
0.61403211989422
0.624178315483644
0.621848511336738
0.62422870472389
0.606904837994194
0.628659025052028
0.61854841746973
0.619554556111213
0.604093436627299
0.61919229737631
0.608271703246734
0.609182015793359
0.614248150856338
0.622889169522145
0.604216124731134
0.627890731462124
0.610329159688935
0.621931075172485
0.612604626439687
0.613160431324352
0.599309065985602
0.622565092117589
0.614828228449281
0.616190674403451
0.602178350661816
0.608337396754729
0.598280110749101
0.609336115727222
0.609927312455766
0.595702107597664
0.583068543914046
0.608286956725915
0.583525334948016
0.594271083097252
0.570549563671006
0.587417326896637
0.585444436737173
0.57910717297692
0.567793689234054
0.566632173038616
0.566398957376684
0.576219828266452
0.559200186403217
0.56548652731151
0.553058361524797
0.553043379033593
0.532738190925705
0.54388530137896
0.522091187773079
0.532859691269759
0.527876037792835
0.525059162615187
0.518827827422174
0.524574186474897
0.510523658776408
0.517064280409565
0.503229888175702
0.509845091570932
0.494892044039135
0.49251719876356
0.495615662892073
0.490173206959613
0.486812689987844
0.494500871172705
0.48199750055228
0.478064808110589
0.465148996836568
0.46857708811619
0.473454555871162
0.46743794743122
0.4606953001863
0.467349596016648
0.451877878545692
0.45747638312521
0.452742538474085
0.456246817427244
0.445307753382593
0.446614932289565
0.437256639806767
0.445402371082884
0.442580546912109
0.448502193507178
0.437139783188827
0.439948645199346
0.430233534798911
0.433853867188059
0.426427875146285
0.423764253795405
0.424368450022465
0.428543479135323
0.423167432252087
0.415757362432737
0.41883342790678
0.429447325445901
0.410505574411629
0.417842687786395
0.409728456413838
0.407101207940578
0.409953669735342
0.417249457227516
0.402520024916729
0.411194997474705
0.402963667814837
0.402928778859469
0.396415825246353
0.408233687678359
0.398085366351206
0.400225599467991
0.398393944924674
0.398767376702999
0.390584643308548
0.39440841860309
0.392215706947691
0.389957418179675
0.384946327978135
0.389883696037363
0.383869484139184
0.389580383486535
0.385594109292308
0.383956531171184
0.371960929625812
0.379775681530658
0.372621168331451
0.375951747745467
0.376133066923412
0.378969575872504
0.371090706804565
0.375344348647865
0.36461294843981
0.375705745610421
0.366917462103596
0.375122357827668
0.373525810114409
0.364756105975295
0.364041365126851
0.369317494688614
0.358546158904182
0.365350244793802
0.364365148435746
0.371762544748369
0.362606378759387
0.36392717311683
0.359132592358873
0.35495150805948
0.354829914171552
0.35790160247662
0.356285521772993
0.358039804462875
0.349366491670094
0.352543829034893
0.352415318978063
0.354410318438358
0.348033077977032
0.354082669404801
0.348826313899102
0.352505145770024
0.350620491468407
0.347616592644669
0.346004733699608
0.351761185432
0.342288587330528
0.351845515316517
0.345479362832265
0.346390091814614
0.346207901150548
0.345737988695975
0.338681040008593
0.342537720174062
0.337440434020153
0.337817453694625
0.339106324312664
0.345780359203533
0.334353050116553
0.336411240998601
0.339791306516412
0.342013107020328
0.338352502834323
0.338874882952761
0.336976093083174
0.339714734848004
0.33418570258128
0.339527361453742
0.334371367735814
0.333356400000591
0.337565083526466
0.338900030506894
0.329206127055965
0.332993277597256
0.336045040786831
0.332974546031805
0.326012312351402
0.33517640386491
0.32855986049345
0.335159938263344
0.332700298524958
0.32845945710528
0.327322911667622
0.331041790157669
0.330579608507337
0.329879821645959
0.323148941977862
0.327368925325134
0.323941068135124
0.324981973596492
0.312643429117691
0.324432130554942
0.327063001754939
0.325413215363479
0.320987362212605
0.320366398530117
0.317653718994425
0.319976414114714
0.316512677791964
0.318616379503372
0.315177187475242
0.32101612393125
0.31596784178093
0.311931307222639
0.311319417870346
0.31735176698029
0.313597440397547
0.31348544491291
0.308739443579837
0.312628341779381
0.314645573731056
0.315863673628324
0.307480421519812
0.312576582969964
0.312260520436657
0.310171072736392
0.309278589515684
0.308341540735573
0.304783134719107
0.305114156951066
0.301588241423447
0.305260986836033
0.309634775973074
0.304297832860146
0.296101808782763
0.303194356850062
0.300324171158342
0.302608952698076
0.298344919433798
0.301017084883786
0.299183119373665
0.298337032265275
0.295833662235888
0.295708264963069
0.294092759722116
0.293628366740069
0.292451435456728
0.293199266435994
0.287748217409322
0.293076588778729
0.29333799413657
0.289108600371559
0.286489382958344
0.288622515454608
0.284938764565576
0.285792260159658
0.282289051879842
0.283745664191673
0.281173478812976
0.2884033347311
0.285114428655456
0.284600982529027
0.2798898697678
0.279055100603993
0.277676137781324
0.282178207881301
0.274019753392386
0.27528267344567
0.278964245897634
0.275189302665326
0.275020652720968
0.272292717321991
0.268580530007119
0.27412812932393
0.267929612518517
0.272314560798377
0.263874938598496
0.265655561586617
0.262470469409299
0.264587471595699
0.265404951079904
0.266234217215223
0.260240846500902
0.260711764216318
0.263360789773285
0.265869911500595
0.258627316111236
0.260782055630006
0.259229460961472
0.260008293826126
0.258294460499054
0.25871283273259
0.255577935575496
0.253513485116059
0.251757696540894
0.251400275371368
0.253946192542329
0.252649063163829
0.251845969711846
0.251278570110192
0.253166402305728
0.251484823043687
0.246706684113342
0.249602361828033
0.243929229846675
0.243614341544898
0.244347118372135
0.245032559266374
0.243005017823746
0.248086189206573
0.242483309566035
0.243910444386975
0.241894752535015
0.24176607941183
0.243236578088519
0.239270188040977
0.237808510033584
0.239530199703684
0.237894738632188
0.237999843483148
0.235078263935306
0.231577124519211
0.232505550123541
0.234539468906291
0.230120007486596
0.234607966406214
0.235234533710126
0.236544868358861
0.235649581105957
0.232422983818566
0.227477153062365
0.230420644604632
0.232943316004667
0.232500218892611
0.227825204714607
0.228108222791284
0.227226491795457
0.225993269235262
0.223071245578993
0.228739417679439
0.226669681516845
0.225516391355432
0.224578007426273
0.221989129170238
0.222818935444156
0.224692821215786
0.221945211875417
0.223485667442918
0.223094379051213
0.221478185026059
0.220367868810408
0.220763056365069
0.221528238434296
0.221201324908143
0.218706778131495
0.220825296770347
0.220388491323351
0.220930828706665
0.221683372944385
0.218030466478829
0.219600433883979
0.219555272923686
0.218452761577294
0.214757367430982
0.214007613606566
0.215219513660116
0.217171052059447
0.219746277853658
0.217784373791958
0.215911151261454
0.212324896407669
0.21199604249614
0.217964944923586
0.215579643745268
0.214568646109359
0.213195005380435
0.211702469002441
0.210105276403707
0.210091985237356
0.211293472331375
0.211590897030013
0.209270089759293
0.210244066375612
0.207414119180835
0.20945803717807
0.2095286073965
0.209621323853731
0.209893147835555
0.20612248607069
0.206884572457795
0.204314778257211
0.204509013672742
0.205796494520843
0.208226280325727
0.207439986933264
0.206312070220066
0.20474422438437
0.203921641646259
0.202728295363454
0.204681455172645
0.20303751619162
0.202370629333257
0.20274384113943
0.199775398164061
0.19995936251231
0.200135796712822
0.199928866157198
0.198750165170257
0.201429582833598
0.200634043053627
0.199793036896687
0.201300082671648
0.202468001997152
0.199582575218354
0.19654792474663
0.195324386441715
0.196966002048684
0.198979072275148
0.199904784351343
0.198287181045354
0.197490348252668
0.197895515412495
0.1977420302575
0.196893065714679
0.193345919702195
0.194502343037638
0.192356183718081
0.193212485956134
0.19562568983357
0.191073308150997
0.191763752129178
0.191461749365402
0.196903859688569
0.192322433962121
0.19792651718444
0.192275241100217
0.190673676466652
0.187671456555969
0.191886772868623
0.19029672553121
0.18588521595925
0.187313196017012
0.185266308058809
0.187096779324678
0.186852088169975
0.186752957265857
0.186162056132087
0.184853372331655
0.186310628880624
0.1821280629783
0.182146932912216
0.183619148333347
0.180904782398619
0.184480954031275
0.180889196215141
0.180324853155749
0.183899777563675
0.177200088653596
0.181048903103401
0.17773658163015
0.178516748492909
0.176088930475472
0.176828240666947
0.177651255587142
0.176612519025493
0.176599975200002
0.176249993683784
0.172633554598073
0.172437068199217
0.171737994075848
0.17490033780063
0.171538309657999
0.173072252536602
0.173490957107366
0.168216508121417
0.169041131786152
0.170969802806407
0.168541704328117
0.169479231391182
0.164862650098937
0.166042281184977
0.167929454856864
0.167739386437826
0.16519619649103
0.167929575301308
0.165262629104744
0.168193661445622
0.163994543419051
0.16440084002995
0.164097295117818
0.164139186143058
0.162125941731126
0.162504177984083
0.161339473947599
0.158908326068176
0.160011699745264
0.162666286004456
0.157901735543978
0.157958466733879
0.157200661915473
0.159435695677324
0.156827952915179
0.159202732900854
0.153531019873099
0.15572074465068
0.15381718365421
0.154380906393009
0.15633174365152
0.152173400749751
0.150444704264863
0.156630839927399
0.152256479519008
0.156053972603916
0.151471657324849
0.15092597725746
0.149811629126216
0.151119364021383
0.146893030509055
0.147185937054096
0.147659592715269
0.148041905913533
0.146201146355408
0.147615937709409
0.145507946582265
0.149331992127969
0.144821737575585
0.142996236530794
0.143842838970167
0.142429749276644
0.141277890325343
0.145591057844914
0.144286695824166
0.143133210332676
0.14062460906841
0.141115246128795
0.139633847997533
0.141947520603298
0.139524633653335
0.140682572578023
0.138270743932353
0.141453565560847
0.140845704466158
0.139304960515179
0.141126265472197
0.139176119718275
0.133212058640136
0.13971991912435
0.134988323533318
0.137299024826478
0.13452830035375
0.138446712431863
0.13748211190035
0.137939310864844
0.136201577836569
0.136904334983892
0.131256962111596
0.13636419057183
0.134485010689059
0.136903302632109
0.128601042666774
0.131737629550725
0.128886329513035
0.138133452070695
0.123916926636314
0.131018387392872
0.12511119220089
0.135135548479537
0.131627003472075
0.136231193271087
0.124348182175651
0.128653792776523
0.122043054668465
0.13314618322846
0.121409862271542
0.129587605122273
0.121651339741152
0.129118547678288
0.110611145362516
0.126769652213375
0.116588551452504
0.128699979437441
0.119647865022143
0.127596365170373
0.119710693247598
0.123648014524443
0.119205556485107
0.130506040898548
0.112573376989038
0.129766270709547
0.117178968775833
0.126797397897423
0.113359965707053
0.133094111603481
0.109204786218672
0.130327457118259
0.111253915013903
0.126560969460715
0.110569378362206
0.125339321424987
0.107573464659026
0.130770050983241
0.107212758148653
0.133010749184525
0.110778115150825
0.135319207774397
0.109609044754368
0.131903500912984
0.105509414196131
0.126989010668804
0.108005815700005
0.135308809542781
0.112837934637863
0.122892467735924
0.111933649066865
0.121794799930456
0.12187764310776
0.120357283489727
0.124937129845598
0.109892206843327
0.127826835731223
0.105691085490747
0.139822896887024
0.0945159287837921
0.143034227606466
0.0948533068676841
0.137996404676592
0.0930717116119816
0.139969880704013
0.0950535016788355
0.133155041778757
0.105849751576151
0.124638939756349
0.111047932525217
0.119921995684222
0.115999243797719
0.116120974677382
0.116138972248784
0.116504727548267
0.114238068846323
0.120250918063252
0.113029587994988
0.122697407784649
0.112702256093615
0.118511484283993
0.109683094605396
0.120141874230996
0.113649503409237
0.11862783437799
0.114614918531567
0.118002225125131
0.112502212986629
0.114324758327714
0.113981213626203
0.11574377875741
0.110582477581794
0.117508289318806
0.114694659601395
0.115759507731783
0.111539544835433
0.118242096750519
0.112839037632439
0.11573599749512
0.11330703362982
0.115982133390537
0.113501550343227
0.114814180349727
0.112622982542628
0.116377928332025
0.112068144196897
0.115969054874133
0.114717873569385
0.118935546515106
0.11288909339549
0.114015262618747
0.111014161040604
0.117398382828773
0.111658952970112
0.118328828098513
0.113977045398302
0.115710444697962
0.113432069764864
0.1162937345266
0.114905302868542
0.112168484011116
0.11286299717786
0.114370108230039
0.112483937832842
0.114625405956118
0.113273525206838
0.115451161681245
0.114345149773474
0.115023532717699
0.113259784942823
0.116096009134883
0.111443806679642
0.116583753034322
0.114266290798144
0.113296181986867
0.112905308651288
0.115118638406921
0.112994401190378
0.114713753037199
0.114099308613435
0.114903388912551
0.113191717943294
0.113027430462917
0.112472392559448
0.113140484060061
0.114355905565525
0.114624246182312
0.112068893473456
0.11627238648522
0.115648842701614
0.117309145728093
0.114494655717542
0.112604429092241
0.117097386327583
0.116921809443554
0.113646464330256
0.115616136488842
0.114483727022649
0.115640271979101
0.114847133396007
0.113538401571407
0.11357556113862
0.114774655247044
0.114215248282183
0.116280448192539
0.116129334584048
0.115499923515269
0.11681502064336
0.117901897707918
0.116139519117372
0.11454559038952
0.118436088947247
0.115240193515611
0.114620561896745
0.118744437697415
0.116597164262943
0.115340873131268
0.115676572351062
0.118343243225726
0.117770189612173
0.118362811913137
0.119139275630709
0.119300701805712
0.117692167232409
0.119041364533697
0.115222233666484
0.117909335685425
0.119199412624771
0.118054909600895
0.116518551491736
0.119010005749338
0.116770465492815
0.12082504615373
0.118087022031718
0.118113577611142
0.117875594665321
0.12020696949682
0.119945476148755
0.117921315397743
0.118361352218174
0.118846976400511
0.121919171737404
0.117205325517697
0.121101760112171
0.119590008247689
0.120605510837442
0.119212632132692
0.120219650283261
0.120685384712739
0.122191333842175
0.121163596873179
0.121139746866704
0.121640533293323
0.11980936726875
0.117549780912406
0.119806905842353
0.121035079513164
0.122673743709256
0.122236358892415
0.121870462656167
0.121834691793879
0.124160112936587
0.121121477263708
0.121670438063981
0.124684246253556
0.125852563008006
0.123705039551531
0.124535579343501
0.124849391469121
0.121681383602021
0.122002172301987
0.122702010325069
0.123465434123967
0.125297207725779
0.123625603489305
0.123765792572643
0.127647878579785
0.125424914475396
0.121957084908034
0.12518545112444
0.124133915644307
0.127085351786425
0.123882328642556
0.120335391065654
0.122738522938464
0.125721365142115
0.124575368891445
0.122245114299736
0.120859234762202
0.123839668582652
0.12154143110613
0.122155750224998
0.120449814996444
0.122462684607342
0.121919274159938
0.122758835971199
0.120372809382196
0.120015972845981
0.121371658701264
0.122599225623424
0.118037571578849
0.123206343593233
0.118008403002274
0.119015256183349
0.119049897752457
0.121907883701404
0.12149938007793
0.119797518191581
0.120312713429507
0.118136348856814
0.115648042585802
0.119238481262467
0.119267788779899
0.119264036306347
0.119392353648687
0.121813394720307
0.118948306668032
0.121904674360525
0.118123001994119
0.118987801622607
0.1173287128484
0.117385694184837
0.119902494202918
0.118339793347899
0.117803374385129
0.117854871665608
0.116861902706803
0.119826357060481
0.117619568239459
0.118026221746138
0.113610557018595
0.116978473341098
0.115768166561568
0.117556115889915
0.117004517424717
0.117146691748878
0.116140942583213
0.11678047981993
0.115286000423546
0.116589461954809
0.114242651224128
0.114871412346887
0.113837015146699
0.115517804215012
0.115395747607016
0.114546021121118
0.112653493460627
0.116749601349117
0.115279915805251
0.116336639761141
0.114819570488241
0.115542268956623
0.114533033799671
0.111443146183153
0.115706298935845
0.113672351615692
0.111748228468649
0.113829058054341
0.114671423046553
0.114270496559929
0.112478626577992
0.114552311502345
0.112008836737687
0.111454075549208
0.112304219156612
0.112937196782697
0.111663244600183
0.111887254694911
0.113382885527955
0.113096490082561
0.111295227144837
0.116557479680838
0.111231576835211
0.111235396772081
0.11290706750891
0.110814111033152
0.112116798485757
0.112811112024831
0.111322702632739
0.113522579899856
0.111573614950809
0.111463868862076
0.110177874438363
0.111175804900178
0.112518287580138
0.110870713846481
0.108942832577992
0.111261794601713
0.111015707657548
0.108899523986447
0.111036468742522
0.110328888539022
0.109364332596154
0.110193460707026
0.109347010569394
0.105111320635216
0.110888852074628
0.111572250648896
0.106785746750572
0.108329930263933
0.106734357606537
0.108468483572307
0.108128853141065
0.108796006743755
0.107776166534218
0.104949462149009
0.105298184820288
0.105210770368048
0.105972157026895
0.105460059487307
0.10356891346821
0.106948445011217
0.104653620201644
0.103240706962732
0.101811147723504
0.10343884314857
0.102346940445487
0.104082386591226
0.101552225399969
0.0990962442614965
0.10288565771092
0.103547807516165
0.101098549302915
0.105812083251492
0.0979128821403317
0.103150656848159
0.0984051935758394
0.0979466299687945
0.0984415541385758
0.0990380436970205
0.0990058989423482
0.1004072853593
0.0961948490064281
0.0975468443361557
0.0945477745557463
0.0969356391992621
0.0950051720680785
0.0972687763866813
0.0940338395452684
0.0988028125824697
0.095172038735781
0.0949195183753913
0.094224182693499
0.096667055681954
0.090824169901757
0.0958896823154608
0.0931076410225086
0.0957273718040164
0.0929245421019977
0.0937052286272415
0.0949911759797612
0.0938741563407056
0.0944874341480869
0.0953270113082018
0.0924107446563246
0.0907410951321603
0.0940328320540888
0.0930338786919416
0.0915748704268418
0.0913495014096571
0.0924629652179889
0.0910516501165712
0.088138981876457
0.0905820217111724
0.0903879803433092
0.0902761241237208
0.0897901118882894
0.0903083880580792
0.0905908447468204
0.0928153385296079
0.0921491383744442
0.0892300846493484
0.0893874982774218
0.0887748627477499
0.0900187712630116
0.0885931680130669
0.0921794233452245
0.0872423735815264
0.0902093003579532
0.0890356911023978
0.0875816219258592
0.0872131884354656
0.089108643906402
0.0862960169660139
0.0895644905111263
0.0872130822978801
0.0867484823352236
0.0884726838254541
0.0873496752393599
0.0876865940309586
0.0871588341740144
0.0866861236659552
0.0876334314111162
0.0863164139480739
0.0868907757688957
0.0847049165977492
0.0870314711192258
0.0848775643760774
0.086441114947465
0.0866837977760848
0.0865095869567309
0.0852834484958126
0.0886515126191473
0.094395812153556
0.0798145093339252
0.0889075089181174
0.0815383142988941
0.0878603473391337
0.0828090078019607
0.0877148684761362
0.0831499329224792
0.0852455337950927
0.0835501662869175
0.0833800365161887
0.0808184393675786
0.0861398125231979
0.0811538067201554
0.08555956955587
0.0827292558539132
0.087731633091759
0.0801909261734671
0.0850210518841237
0.0790794404219894
0.0853152046397465
0.086280901182521
0.0825185229240009
0.0797877463183531
0.0895137516438481
0.0769919687846313
0.0933139325112157
0.0783041789847403
0.0863437365305568
0.08094151999194
0.0828872991030556
0.080287266140092
0.0843276788306182
0.0813592833011199
0.0866439674090869
0.0887403238943674
0.0805079959986631
0.086383984187403
0.0813410361845005
0.0829411333619926
0.0810415602609009
0.0832420341958876
0.0823550444537832
0.0810069288515853
0.0823615038440244
0.0812668212323585
0.0807764023686343
0.0821348982137484
0.0864270069474112
0.0818617496425766
0.083277405839164
0.0854195218864009
0.0827143126202971
0.079374616501117
0.0795578052936218
0.0817298085942731
0.0837435238028175
0.0893230136897556
0.0752866924245581
0.0854833176318224
0.0799225058592739
0.0864112695598504
0.0816503357075822
0.0821553385508206
0.0815151515041612
0.0837734363421742
0.0815505640011113
0.0836839530588997
0.0825029965451152
0.0828429752882452
0.0819952253236378
0.082228054167588
0.0823442724394532
0.0811883338917154
0.0809794801515636
0.076936668563365
0.0846128655540697
0.0800691778698644
0.0904779669417406
0.0876176241458621
0.0813005226802035
0.0838504152048365
0.079812745194719
0.0818823660015109
0.0830053654934129
0.0839575328908543
0.0793985091160174
0.0834997539087549
0.078205708381999
0.0841429040383301
0.0806518210873857
0.0850170577102952
0.0787338496648857
0.0837367862087133
0.0797738669192921
0.0849409414631236
0.0798915161361473
0.0903792511963561
0.0790060360279044
0.0853463008418224
0.0778129143895306
0.0902042343827308
0.0791069846481862
0.0879710238367523
0.0783166301516653
0.0960649708679405
0.0854062621559178
0.0788160351930647
0.0908319138423309
0.0790177283352826
0.0887613191113625
0.082026104130437
0.0865299892362355
0.0854923573536624
0.0824017876968765
0.0844696823900915
0.0864938083634962
0.0811013923999648
0.0857625496239113
0.0838010043333571
0.0865980575511621
0.0912010096702469
0.0824933503647669
0.0885643504785409
0.0865779522432252
0.0806441705756856
0.0997387040801757
0.0807070875698924
0.0913123341106582
0.0831161688275834
0.0849097150468958
0.0874115944595233
0.0894852365680715
0.0882157195747957
0.0891335933787192
0.0893865278593155
0.0848668672958796
0.0873376882525904
0.0848160108799303
0.0903138416274631
0.088812326870576
0.0917785438772983
0.0910930714644661
0.0852242595638629
0.0925101058978032
0.0928667746331109
0.0899563859570194
0.0906111135063748
0.090445426319557
0.0917240366101322
0.0924093954369662
0.0942242533717307
0.0897992862358688
0.0971503794129261
0.0944856292114901
0.0889714775764033
0.0951323602394289
0.0919014877610502
0.0946625373660015
0.093938129483895
0.0906609632656399
0.110842785530936
0.0836068965587085
0.109138902803158
0.0850040717510333
0.101380853451341
0.0875367019952676
0.104640782478866
0.0891455830929508
0.104022135518189
0.0911441986718949
0.100325797032523
0.0969984801888624
0.0977181811847582
0.102873120716336
0.097340877721356
0.101822546665444
0.0999195090203162
0.100170784453996
0.0991513006339594
0.107025255972662
0.0949525953574111
0.120887216296809
0.0990432118786291
0.100684863151077
0.10709828137667
0.0986334700986035
0.121917885516898
0.100272000067194
0.10557728406147
0.102799259829859
0.103483891692117
0.10957469085065
0.103439867347305
0.118037837724962
0.106682538923949
0.105937671958508
0.115048997366101
0.105418216902932
0.117752782788106
0.110062914862416
0.110499131337562
0.109532050613531
0.116223317872259
0.10909450494478
0.12222902008658
0.126309774497456
0.109282159067914
0.13778686277187
0.109751236373355
0.128549733430791
0.114446864089095
0.127040627307964
0.121244116981049
0.134567215473693
0.118951853390327
0.131357233245231
0.120829467336707
0.143712850175738
0.118638613168893
0.136699859729764
0.130969691366959
0.139633028594168
0.141565344974763
0.158526502727985
0.139363847440456
0.148836041926835
0.136635760492223
0.156018412939357
0.1427925929244
0.147616583725958
0.151366925855163
0.150293033076135
0.152694445469476
0.15464736097922
0.157329466602367
0.157115544857773
0.152695430969494
0.164162805457098
0.158605078016007
0.183891518281336
0.160253775303365
0.184374899908061
0.163863958512214
0.183551981238008
0.167720400902761
0.173179551542385
0.177571310964011
0.17394250858369
0.180581215838679
0.180595346428683
0.180674948401954
0.185307428429222
0.187996509417538
0.200024650303402
0.184276215830206
0.216587118084303
0.186610223927388
0.21453377305299
0.18181599214491
0.275764892411852
0.216704520065673
0.220506476916063
0.239597259755353
0.222266155919009
0.267500623688725
0.245139547015363
0.253627417674798
0.260626274217488
0.266976736625074
0.273102519815703
0.286342483568942
0.290062308681677
0.30143243562756
0.308723388233127
0.306536448988036
0.311040616452439
0.359644333555522
0.345964214361002
0.354523932792816
0.348782951341164
0.373718545080512
0.382758184976841
0.384589093678007
0.379697626895911
0.404931510059175
0.388496169536399
0.454475896238195
0.420564345058558
0.44120898958402
0.434176637569182
0.471297416818175
0.465047325417634
0.485566486354734
0.511260450125861
0.483272544490223
0.510469683955098
0.504990649492889
0.536335277645192
0.514377779580087
0.549277099920568
0.553600452138028
0.554891314045754
0.566066381638182
0.566989522908324
0.578739379080646
0.58459401352649
0.597878352281726
0.599298558712383
0.605828192106114
0.616318261519377
0.607629858790647
0.640870584699949
0.603386239745526
0.628188390556374
0.594539754930454
0.647074031423725
0.625894831977519
0.639514375694659
0.646785699405986
0.613256058823729
0.645855424181652
0.63535430329883
0.633700872786779
0.624617006563688
0.629760956842035
0.63146759183634
0.639055392176726
0.653211154643958
0.611535789377491
0.725213997313438
0.625439946351276
0.640639324413924
0.625873351564694
0.634379642499824
0.626814242947053
0.64116140681061
0.615495958279329
0.652405173427631
0.614821275669117
0.619333690251367
0.608521168596438
0.608695269402989
0.626540623546226
0.596522460953699
0.590403841021701
0.579973893520067
0.575797245582098
0.574752029042619
0.55702068585863
0.628434434439171
0.560480571433198
0.550649509193444
0.544787490630136
0.541372031636068
0.527826740489524
0.525889509810984
0.526445257034577
0.53215402140402
0.518913456676999
0.524762021673946
0.519684794944
0.511462637937005
0.507452915413494
0.507799448120602
0.505718333504825
0.501756264239569
0.498316445519887
0.489209101761263
0.491482282787257
0.490378504250261
0.490592872453688
0.492430161041322
0.491296752556217
0.491359619272867
0.482301369535085
0.482511532261704
0.485351515898407
0.480490296597507
0.486861222928751
0.479293068902094
0.475126852922979
0.478144743666593
0.480624700273014
0.47969391006739
0.484408560615994
0.476155398374471
0.47526054701962
0.46758256416052
0.46920570837928
0.462923361019926
0.468020438743453
0.467719377085197
0.482103798281639
0.494209926614357
0.453211217197927
0.473053938625532
0.45589749476933
0.46008810197697
0.453707118898108
0.461324138216671
0.464277252083371
0.447029747389859
0.447463080407235
0.454139440035191
0.447175273984135
0.458521965975085
0.439782651571345
0.438705025010543
0.441748213771732
0.422993226743195
0.494003834658542
0.433385080075722
0.491930273911354
0.434907662302458
0.437466097272099
0.437729402102089
0.460558883382693
0.428648870992462
0.426320138303161
0.431745455993249
0.421654453610323
0.443790975358424
0.420291389023953
0.429972871656388
0.422694266337477
0.428741781294633
0.442195872620692
0.424419372175054
0.428039998609867
0.44130941130761
0.420419214415764
0.43664821100198
0.454789557868157
0.419098218656665
0.403470846165255
0.398914826624789
0.400615003378896
0.394509459651094
0.407095778590047
0.405732305863491
0.384537020197885
0.392495929601689
0.379921168413346
0.39236531788068
0.379078928720491
0.389016671855807
0.368511943810775
0.376264733417243
0.375686298938281
0.361331782399833
0.38896724698089
0.373371893258664
0.393694551660521
0.358904743869196
0.363247389335969
0.354476002220019
0.378314615624557
0.355158062908795
0.353587846564396
0.354486278431961
0.34548074590185
0.356768624434812
0.346138205865204
0.329453066406945
0.352265250756438
0.33410152538112
0.351681186434527
0.358576328104095
0.340041395843369
0.324908985695503
0.322138843030906
0.323336468605373
0.324699126167699
0.31667385277513
0.325371741084243
0.306052954964826
0.338590568544327
0.312928092404792
0.336425493076518
0.328005037410388
0.323234169619885
0.324935273028378
0.328485192301275
0.329014736162731
0.348880765924906
0.335636621572189
0.348651588511033
0.330408750952404
0.350447104576039
0.341884811752247
0.351667359430348
0.350561593892097
0.356196631214809
0.357369660203174
0.364518149352705
0.375402869576773
0.382105621170881
0.385204572938316
0.399891523087481
0.393462929460396
0.419869965537862
0.412368208836717
0.420776085860749
0.460027320565518
0.435131931808795
0.461324131773523
0.44630262793604
0.461917680817944
0.466734719522587
0.463226961967062
0.476974775535998
0.477469486894199
0.504945692831383
0.503319799694883
0.497432026987715
0.506262365769154
0.508801434283598
0.522541938147548
0.523784037706873
0.560924050193766
0.512409372068234
0.574609516502944
0.536841859225833
0.546622180555467
0.552202553971747
0.54827724189281
0.555262124336455
0.548793210490617
0.55115690717419
0.558403437015785
0.578335076016301
0.57025240317406
0.566436754870655
0.572643303305499
0.568913592871734
0.578090309393059
0.575052209078971
0.582465651623413
0.58666255434471
0.581297480689777
0.590679979514369
0.589352242826243
0.624596808114185
0.625924102830652
0.597054362271755
0.617922667949614
0.609222904640827
0.623429132272871
0.619255440809305
0.627230898281369
0.635132911568336
0.628926325680646
0.634663154990418
0.63909869754213
0.645667106564064
0.641805679813891
0.653129234583052
0.662754019704702
0.647660358984505
0.6730790232132
0.66340484961818
0.713194510170597
0.671895612235714
0.677884459800734
0.677667048489787
0.676659074640287
0.687760606277853
0.675777216317544
0.695333983246473
0.693619960250506
0.692663972659689
0.69450796579777
0.700127131592327
0.688714283633258
0.691656293235452
0.700957594001716
0.707645554811536
0.690415754386087
0.687385830090179
0.69050718071635
0.687626753181274
0.694605484600481
0.689997933260244
0.703237294313455
0.692968879414093
0.680153450509911
0.686459787239755
0.693125578338209
0.692949285140878
0.69008846359828
0.694538474176693
0.69468048959952
0.693074018200693
0.696520297987502
0.683681221910681
0.709768843720597
0.707859236330617
0.699983097862383
0.710791993988519
0.707240003505556
0.706904714721007
0.715891097881228
0.72706600835531
0.72278387662967
0.734862314936532
0.730579779781758
0.733803601344417
0.729602945962532
0.736381756463896
0.735589604401429
0.734888068830785
0.735990190170637
0.737048166191715
0.731592715984341
0.731443623434834
0.734044082625614
0.735295324215086
0.722939944680443
0.712382471971306
0.71307438375334
0.709903837098176
0.711723404904307
0.711896435235252
0.696061740472259
0.695521027894275
0.691174350736258
0.691158630994341
0.673317141814824
0.67719061997516
0.677895096819284
0.67724047309448
0.667826686666863
0.665878480706687
0.66900403777005
0.660800316139994
0.655702417715221
0.657193351780836
0.65746383879574
0.656259511421499
0.652054219926201
0.657771016498878
0.655855984289959
0.656633572429084
0.646185185184924
0.645757022274677
0.650922015627047
0.654357150759385
0.656624585617421
0.655318634702249
0.649026915375788
0.658226581490983
0.65156853946991
0.648946473335332
0.65215388089026
0.646352568178239
0.650221341950712
0.645838493853948
0.647998371333073
0.649260371914953
0.644548598777998
0.645123575813062
0.647314642258141
0.645452122198032
0.650524621638745
0.646008115973743
0.643739508128705
0.639666564586874
0.640090355341918
0.639922568548282
0.638488361967605
0.643981754887271
0.643661283337578
0.644898521443165
0.63754692957376
0.643361755607775
0.647207307507062
0.642876973513186
0.638016758344196
0.647580642575068
0.638654280727473
0.641942774933029
0.640866388967287
0.639053694808556
0.641142733531382
0.639243362581097
0.627800924639246
0.631837391143388
0.629232376427338
0.623444570623694
0.622119666159902
0.614279448966451
0.613473333778184
0.608526421954385
0.603637894814529
0.601970454350017
0.603502101292287
0.595893037739204
0.583114651590507
0.587182960938903
0.580741100463841
0.576939999727024
0.579525646059746
0.571658099723316
0.569648300171289
0.567476054382787
0.56591463946288
0.565429449916727
0.558634678475525
0.563235819998536
0.56079422866978
0.561000854393718
0.560781546768007
0.56339534302008
0.562757011481376
0.56488827511718
0.567256325020746
0.56488748826552
0.569479017552536
0.57038537055569
0.570125081849256
0.567881667269451
0.575093555526639
0.576304731089813
0.578345898145378
0.58312728218485
0.580647234258068
0.58896553929567
0.592145287962535
0.591141729453592
0.587226663285893
0.59111361012105
0.592153411214331
0.59613862555994
0.595431321329594
0.595167675476018
0.598492920224625
0.593644276008226
0.594860833716242
0.595523999002591
0.599138155189771
0.592606606304654
0.594493782585742
0.596026292414607
0.586636491817873
0.588126930668858
0.584571451507413
0.580049754049313
0.575893193131546
0.587258447374635
0.579625076949164
0.577794017035097
0.580268375047471
0.575522473159317
0.576148110455408
0.570827867042477
0.571454870882067
0.571331585488135
0.564014869513233
0.568460272713437
0.566362194677667
0.567961310066808
0.56459119739916
0.561549134691093
0.560009161600723
0.557823889604907
0.556634604135748
0.556055810403578
0.553392981434269
0.552408507188807
0.546978593341664
0.54832630391609
0.54391231254586
0.542512565660785
0.538398673595895
0.53994344645323
0.537606325318308
0.533985709675902
0.529346301781475
0.533964985615718
0.522679423091753
0.522695878167759
0.521569710242274
0.514261119494157
0.509705744987633
0.505472064856966
0.507569749365488
0.499363384627443
0.494858495926535
0.494058167837853
0.491953047681617
0.492851043679629
0.490639231929461
0.486335291777903
0.486297005248377
0.482572840387736
0.487360937132607
0.482362653820063
0.477210940928186
0.476496510400029
0.473659884658473
0.472205626274794
0.467159398240144
0.462532701536418
0.457832826388616
0.45231744523212
0.445649278775975
0.442439042389069
0.437219703630447
0.430283922011222
0.425435963489088
0.423510423857484
0.422045067994282
0.421223772849133
0.42260144315217
0.427626951526809
0.428547684477361
0.433925666729869
0.446044745287927
0.454651566858468
0.465869290209481
0.477143917210702
0.4921965896411
0.505871546964866
0.522531487406312
0.538320971051046
0.556816423877177
0.575770311898007
0.594486063891771
0.614403792205599
0.630095097155785
0.64770734158866
0.66415252875234
0.683057740039791
0.700880329990513
0.718300473245534
0.735645462100384
0.75660369096159
0.774981268964873
0.787867435632409
0.798033970525801
0.817607364619657
0.826197788903697
0.841008288886551
0.855266385889231
0.866154205075859
0.876396868184844
0.897499581868613
0.894848726904923
0.903464961216941
0.904592909536942
0.913480333578073
0.923718167269618
0.913951176495793
0.921255320649563
0.920673433521827
0.916145206822549
0.921880058546196
0.908979580818032
0.922849261716206
0.918614778610845
0.914559342971863
0.913711177689544
0.916344779367506
0.926096369218424
0.92319029589183
0.933926154808871
0.936982520345415
0.935945715232023
0.948754052183216
0.946066238193579
0.96476934771019
0.964882857572175
0.968441847749356
0.974277973333606
0.985123865568256
0.989561596981008
1.00126401486154
1.01118549608111
1.03980487032318
1.05134756043374
1.06734717437862
1.07978094722532
1.06710398717059
1.07660612286535
1.11457808870932
1.10641419867898
1.1075187573194
1.12401303842302
1.1304797392203
1.12414325318382
1.13292010560244
1.12971612546801
1.12466409514753
1.11773209497428
1.10104030716812
1.10538846243914
1.09581689327694
1.10503979390209
1.11875551141153
1.11511498771725
1.12821066735855
1.13653348631184
1.13643614325837
1.15942581666018
1.17611742326474
1.19258457128992
1.19762331964388
1.21094769050221
1.2346524797869
1.24506280097343
1.26784436461718
1.26078008482955
1.29633116239331
1.3066847115407
1.3079973301522
1.34252718387878
1.32719048431447
1.34733291715024
1.38055713100488
1.37728791377003
1.41757040193699
1.47779776197759
1.46832357294914
1.5138957433552
1.53749807607193
1.55443964500278
1.55095494630203
1.62076793940419
1.54740330124242
1.66931860188024
1.66546946975807
1.66945543246085
1.62710800962612
1.72688605472508
1.6895009044392
1.75186003485657
1.66373646372992
1.68379659554889
1.7250621591985
1.72463620285647
1.74403624747632
1.69392907792885
1.67336255056771
1.74777615782916
1.75293035869591
1.74853102126618
1.76353993057312
1.71241224649601
1.71732393213436
1.74918328914021
1.7220756144804
1.8135942211227
1.74370065779861
1.7743500823182
1.79724391251714
1.92884694427302
1.83639164247163
1.9460585377267
1.76852493058288
1.92065042330271
1.74338716956503
2.01562020914812
1.86762784073538
2.01495507007047
1.82995055903807
1.90819436511709
1.93665945994767
2.0819986604983
1.8713237241093
1.8907909280491
1.93435935525099
2.14213881008037
1.94018665245222
2.05093205820487
2.23996224716308
2.14699705030343
2.19532835414654
2.23705416196294
2.06478176955969
2.1821591794456
2.15533025095588
2.0981179584486
1.92520537417056
2.5048221167687
2.12866265170576
2.47152846926893
2.23561181300765
2.45743358578712
2.00017950297276
2.11272322014155
2.05514620418042
2.21755720249287
2.33760717179077
2.14797602322548
2.23141707260811
2.48712169714276
2.07231567194983
2.25752402372416
1.82409072751624
2.10427530687268
2.02189062711711
2.16828566372769
1.81450017294231
2.05086729047845
1.89169165701495
1.9179233851556
1.73624930492207
1.88066002833279
1.68803834175724
1.84442383690235
1.71876184038299
1.7093064963606
1.71224068722376
1.69285511393813
1.58537974952544
1.80485566471671
1.63215119086961
1.73710429285947
1.57280656203912
1.71592183073599
1.63655851662554
1.6204208271437
1.58880161946756
1.66750905236497
1.54054061020508
1.57386948728461
1.52982523219588
1.52909944571851
1.5016524871813
1.48878155856724
1.44889050780374
1.43542364508919
1.3571900848593
1.3503370119632
1.30381950426444
1.30465150012282
1.20760541337749
1.21602753940521
1.15114754215876
1.13896419072069
1.07434990998109
1.04161120162735
0.993000646860791
0.962013792790889
0.929002863730004
0.916455188267194
0.867937781690873
0.832273600521369
0.807348361821399
0.798064353616
0.76619336507747
0.74665373921809
0.728297525001207
0.721758479774768
0.705845485590488
0.707102404873427
0.689909015544493
0.691240517831582
0.675444209579714
0.68665819604423
0.675630707025114
0.673050047727908
0.671896732323755
0.675179936306762
0.674671652895202
0.682535059634283
0.676973874970333
0.686257852627453
0.677545295172366
0.672221123688377
0.675868319881205
0.673337577727272
0.672221989079792
0.67023083190977
0.65886139921343
0.651053963214576
0.658033123291773
0.658631887147769
0.643787842671587
0.649388642391555
0.641593034212135
0.627871808469157
0.626118035596154
0.627829746260339
0.637209964875411
0.645563291339149
0.627276002108404
0.645912786497228
0.637654154145887
0.639472491580151
0.648414569808927
0.656099823199963
0.641247184552648
0.655458417334697
0.645456313798664
0.65737003179848
0.664113810540121
0.666175248790577
0.660549331826894
0.671993700997394
0.668226152771631
0.673790130770698
0.666598645036768
0.669719020681231
0.66346882048809
0.661960688136758
0.659828515634774
0.667523881142072
0.66566175895157
0.679133762591816
0.681810435704054
0.674778214914101
0.671483486460767
0.699728752099256
0.701688954518108
0.715629621015344
0.714464261124882
0.743418784775689
0.732459074020842
0.757789222889594
0.777954629911434
0.801165951022818
0.807599297718668
0.827216241030543
0.832729737735793
0.847316423660723
0.852680482929577
0.847455812458778
0.815286354176731
0.843857465540976
0.805984723875105
0.806902443917695
0.812981627622394
0.799297499407348
0.775073433171026
0.785656439797843
0.761504845294069
0.775457974355096
0.760569189193984
0.751602248607256
0.761167123407868
0.783175949354753
0.769075157666305
0.778757619734701
0.768643495081994
0.794406556011549
0.77801050286832
0.768865272662857
0.762123350412489
0.759562599054573
0.751452113331632
0.747095915186233
0.746795571493221
0.751348786274529
0.724525652225664
0.734054934379219
0.724339221584896
0.711823758427694
0.707379869614543
0.696566027623841
0.701555822758006
0.697808514664738
0.699574672068461
0.707448499658706
0.695492464226146
0.702976987773791
0.684522128670172
0.695807818748802
0.688982157639215
0.668711194677201
0.675575902404415
0.679765025975264
0.65949666459856
0.688914792450917
0.66122858232341
0.667449459965541
0.662210602388556
0.665199041703802
0.671928525872354
0.664979763677412
0.6331945474242
0.643742027140167
0.644863092597152
0.653771557491544
0.63529347381869
0.646510485519011
0.642853289676132
0.651272787113908
0.617273899795954
0.645610701391597
0.643094844473687
0.622412316065156
0.6143915817123
0.624473413673092
0.625140027149818
0.62910431814
0.641730024536518
0.625560238988759
0.621594590863593
0.645054629428407
0.630631940882006
0.634806390400062
0.631649255844954
0.642804902710823
0.624528555689167
0.629300615730947
0.639396219635179
0.647581370097662
0.621380118213141
0.63009800537334
0.635744860091155
0.664042103184747
0.639034735904874
0.673807678336166
0.651950563017197
0.654736336275767
0.64021262100253
0.677008177767929
0.676395956940772
0.690817520726177
0.66702517033636
0.681634057969619
0.698524383242858
0.684540430172279
0.698143458039325
0.716658456966182
0.708700624651313
0.755011541996506
0.743599205366771
0.795133175154934
0.786825409570917
0.834176236937715
0.838227851261295
0.859502134497579
0.872658893067762
0.88278832315187
0.877112718781016
0.936549580452207
0.971763458381872
0.964216250939594
0.926449223609259
1.00638652456259
0.964542734639736
1.04063513129202
0.970060161192414
1.00828084695347
0.960233732632245
0.951301629680373
1.01775956915584
1.00424913161069
0.922975238404838
1.03718184373164
0.984054112925561
1.01217136080569
1.01681285206685
1.03386898239263
0.929457722772515
1.01539927910358
0.907827803435094
0.979803301131048
0.924522288547601
0.987549556557301
0.931856429971058
1.07134678613694
0.931578909242611
1.00740336848919
0.920683606445811
1.02274471109769
0.93400127545587
0.898882004516634
0.907616286112414
0.940552092602351
0.886431167447459
0.927376012674129
0.9334714931833
0.990663243714264
0.866686228866172
0.935938383344361
0.892147720830555
0.932130911454951
0.894633026483155
0.978726994151542
0.896327189697352
0.879346955192694
0.910986383869159
0.91134495383136
0.912255358008203
0.872764717560329
0.846426947860564
0.890685524839382
0.864995514828363
0.957072891548112
0.944803804245958
0.927901881282643
0.920727624423979
1.0251296754252
0.924266888583076
0.974464778370125
0.959151748505916
0.924551517933214
1.02026700500549
0.964173112309744
0.880669179569579
0.939876627805785
0.947517603442645
0.984374659782627
0.944027136528744
1.02921606300825
0.909700999894182
0.970616341747399
1.02221098856273
1.05759773011234
0.897094795607464
1.08346296026293
0.985320228064141
0.947325981810506
1.16708294025179
1.09388422502077
1.01041878838594
1.20963427367502
1.0089777624828
1.33327323316316
1.169275352016
1.3621500207005
1.28035503097355
1.61639464733004
1.05263712649267
1.11561676692
1.18660946568832
1.4717772735046
1.0883677684394
1.09011485253682
1.1835420641166
1.75202038393658
1.17662009200148
1.36475620079224
1.44486845722127
1.26089016918859
1.00689649756149
1.14043182933836
0.979806299673405
1.14057006323716
0.958506516425673
1.18067533409801
1.24260855085232
1.76986742204589
1.1298063005918
1.01935975530251
0.932515423036234
1.38146630083563
1.07983031565114
1.17546826209573
1.4243497053664
1.44831468423017
1.22987076554936
1.72977640966721
1.08388057207952
1.22512855780463
1.92317520140596
1.35719888815071
0.852260886514092
1.24134661629195
2.48152799016322
1.12520949557332
0.971834933999138
2.35304269405085
1.00526969060479
1.00167206187472
1.21990179055767
1.16382253573347
1.09602463143761
1.31545207071269
0.885721306351345
1.28874297141703
1.40066445317099
1.45068126743705
1.06211246742574
1.71995394448339
1.73312002731186
5
0.624919853567579
1.20827354879284
1.31994675284595
1.06846259745398
1.03271582817793
1.12244541357074
5
