3596
4000.36533379555
650.420452594757
1
2
2
0.0601002383642198
0.0401819325003358
0.0666164567353675
0.036917351685918
0.0558602758798668
0.0341880931185435
0.0548533295055488
0.0358957676256281
0.0540277714564598
0.0384925139256743
0.0456260190238069
0.0367136226137342
0.0516639140411494
0.0305158121964264
0.0447361035382456
0.032895504877415
0.0539559962281802
0.0357857496391215
0.0532016330215452
0.0443463663867201
0.0554998506751814
0.0365572445643623
0.0613071885226783
0.0442908111844923
0.0495866350690541
0.0399961663367156
0.0532552304559744
0.0362088517694965
0.0554876084481385
0.0423257102182139
0.0561537062484992
0.0394786996805999
0.0466138895328842
0.0441802419190914
0.0489755214927195
0.03409691126215
0.0465485859586096
0.0363130904188973
0.0579476220992815
0.0365203643652817
0.059197047111579
0.0423124532938104
0.0452106774189172
0.0363793973509402
0.0499059406033079
0.0380757640128889
0.0474453470650935
0.0333417743107708
0.0468225157803383
0.0438840461983405
0.0623866962570139
0.0332186950327645
0.0548357374736265
0.047729142108587
0.0455786863653189
0.0410327485066506
0.0410668357401932
0.0373312315462735
0.0550284911793696
0.0361231593238811
0.0526552044316127
0.0483195708477511
0.054085225163619
0.037618840066458
0.0424204913002571
0.042744877093326
0.0427322198741242
0.0414855146542934
0.0450984888929826
0.0449601322898977
0.0456990817039416
0.0347221713957138
0.0502056021032195
0.0361801805713055
0.0554870813978689
0.0334057080480996
0.0479547820643349
0.0322829926611792
0.0480669773962404
0.0311329000913433
0.0619083398705041
0.0355844917578162
0.0564461168589049
0.0363876060756885
0.0374112202178901
0.0386465794825204
0.0522683481672507
0.0171704714917912
0.0560047612167632
0.033865712736617
0.0468691459344939
0.034980379016785
0.0447793854498018
0.036220652424429
0.0491291275667103
0.0327887656821352
0.0495128157559162
0.0276868216626881
0.0439798375096687
0.0226843575398862
0.0608778500980244
0.0133282165637494
0.0733541927491714
0.0243099820292231
0.0611000487705466
0.0481058030644813
0.0245647958959697
0.0497218282286932
0.0496996489257759
0.0397187041777104
0.0398090525243409
0.0322857701869907
0.0342449242766415
0.0323587985590112
0.0465011514376804
0.0447637101276869
0.0646380626024927
0.0271885677184257
0.0429121257737674
0.0296606895986248
0.0496152719689396
0.0197510695084783
0.075224408509701
0.0204507313294514
0.0498252734174731
0.0325824562896075
0.0524327985471033
0.0235265643103502
0.0524737145113445
0.0282257058608185
0.0530120497919407
0.0274037053886933
0.0497110482661635
0.0144456510208707
0.0773016474376964
0.0290593910844913
0.0472698319180619
0.0369749091659907
0.0490734564726232
0.030808091920977
0.0402776715276984
0.0354731042745776
0.0479306597029109
0.0261664567557931
0.0664422567193109
0.0223846350401402
0.0387924651408006
0.0335291554946899
0.051699662814996
0.0159237037002859
0.0439131438570094
0.0266110167739672
0.0441298974278459
0.0341671735359303
0.0534596326256024
0.00454401645475254
0.101638655320518
0.0189321136324205
0.0821035484252811
0.0184564105106354
0.0436141209813856
0.0305744095149883
0.0446800171570417
0.0307805103330692
0.0343155765476556
0.0329880876486059
0.0370266639397341
0.050695349048878
0.048073975770767
0.0361963521572244
0.0447999093308377
0.0365630355608819
0.049707604311451
0.0249980963166487
0.0488145103877255
0.0144112185953922
0.0662819509448554
0.0268931383830655
0.0472924410822991
0.0234019653037161
0.0496006492013144
0.0246333463756078
0.0464915892203116
0.0312586507905434
0.0529979682551231
0.0257824836392541
0.0579157370603371
0.0249330512387265
0.0555233807790615
0.031833395090433
0.0658156866036836
0.0251352211234652
0.062742145132134
0.0176524917158985
0.0551040735148358
0.0320361742012154
0.0410473099531082
0.0433472250744824
0.0384078878522756
0.0315313551747807
0.040234256115552
0.0275633716506404
0.0456409228455413
0.0250075049725637
0.0477812977177221
0.0207854191894415
0.0475358553150822
0.0345652802623495
0.0447713436835502
0.0304458302724707
0.0481212012278347
0.0346735383197991
0.043527454630501
0.0495672395617047
0.0382439451257586
0.0365263371620944
0.0378815298458542
0.0463174131525397
0.0525316430350438
0.0379209050769865
0.0459397196226525
0.0322070147170605
0.0531128756569834
0.0355217221608809
0.0444414895757215
0.0352961702467578
0.0431801001235035
0.0363207908467717
0.0468459493816689
0.0370931789104559
0.0463771201720511
0.0441704954565953
0.0479474751992447
0.0338151800460364
0.0536879627138077
0.03678944885965
0.0651801960174223
0.0276409206771428
0.0473827653293218
0.0331326370436519
0.0458967502300281
0.0324793599001638
0.0488857488816062
0.0279567086281403
0.0528528809362004
0.039538674545704
0.0539144600742096
0.0404724532488188
0.0432931869520083
0.0508817747973603
0.0357381692301766
0.0546465510033976
0.0332228970247857
0.0456210847292691
0.0431812133663932
0.0589370490481252
0.0349786491716099
0.041553376417731
0.0548387958632985
0.0507530414108154
0.039884991502753
0.0403054303702758
0.0456075503722617
0.0515229997119954
0.0496433688523147
0.0374299031213602
0.0717302460177449
0.0401121082329549
0.0557940452718296
0.044496215496663
0.046616642918147
0.0522648132818885
0.0348073777753355
0.0201824803650302
0.0556804643329062
0.0475888200200238
0.0497863293429159
0.036672835646659
0.0526009317930686
0.0385023723329117
0.0719755979498007
0.0357099721324271
0.0961960208655733
0.0563618902252196
0.0487304470430077
0.0589263296347418
0.0415756807297653
0.0539373154207452
0.0396217712381483
0.0500505103556763
0.0475510883476168
0.0594424647158685
0.0451719317372388
0.0548220045337431
0.0398030101175148
0.061509664548704
0.0504053347254385
0.0592203278731628
0.0523862192871361
0.0422299455213735
0.0601945936368913
0.0597901201015738
0.053637608970743
0.0532357650534158
0.0585750025724169
0.0507058836688344
0.0632548479625385
0.048364755255039
0.0669040284863945
0.0597379339407115
0.0502279866246861
0.0459637212387062
0.0552816976057858
0.0536718790733171
0.0510990871212685
0.0534766819208266
0.0626790298185131
0.0515424228257054
0.0624386500329052
0.0614265822649496
0.0661062189615778
0.0471165826656411
0.0680164866930658
0.0541086934120964
0.0642695479016439
0.0594990873984174
0.0671397050730872
0.0600659350263042
0.0624453262364247
0.0658409915834981
0.0559611846084664
0.0629071963945731
0.0838105787633017
0.0437496387642455
0.0814783352838269
0.0561575135961296
0.0766355686076709
0.0687840985129798
0.0731131815465818
0.0673563382808395
0.0669603224155154
0.0673293107065798
0.0838664545868566
0.0789004508067284
0.0824689106478308
0.070115265931658
0.0914719801596088
0.078211030956392
0.0785050302918546
0.0781194352965127
0.0815090932873689
0.0960844882578486
0.0651315794179413
0.104490550919338
0.0794052191667366
0.0871223932911323
0.0932758490707863
0.0841062586471064
0.0957479892081032
0.0937157779316358
0.102695545823434
0.0798146622283619
0.0969431912465392
0.0944442033755084
0.109116329244983
0.0881658179991258
0.114012983100883
0.110728662818611
0.114698688760643
0.106192502334224
0.114325099984011
0.0990101492576064
0.121767196377838
0.10375641553548
0.163295616841202
0.0919904131791332
0.142272457783207
0.121687593714458
0.136848433940332
0.126157528613122
0.126007615201434
0.129065630414233
0.140226209247689
0.139348433148195
0.14360965287832
0.143586141347115
0.147828003854062
0.144287735591964
0.146942110233513
0.148421915839921
0.154043369454148
0.167561183949713
0.169621957235555
0.166664583213215
0.156098589059504
0.177993627608645
0.167816590827683
0.21410326107044
0.175759034528381
0.17325502944227
0.183922896543735
0.18675515048595
0.178333810224238
0.192853453858668
0.19142174449341
0.190706753616673
0.210502220075888
0.195775717275347
0.222320969482419
0.210515743362538
0.217440404329555
0.225301620450145
0.214510911637366
0.220129625277083
0.225768665145008
0.236128408247185
0.229211978244239
0.253310865832945
0.233889385388559
0.253408698835094
0.246685120318926
0.240329586457423
0.255872268663762
0.241049380480059
0.25391535008098
0.255614456528305
0.276460622135648
0.247555936046454
0.262855951238623
0.271329261980614
0.284141221180725
0.278671425798245
0.285168285462267
0.282321672299256
0.30620634326442
0.302986014706561
0.294675792909395
0.29565159802341
0.293263704313886
0.318612721014333
0.312231805684681
0.32464648216744
0.31946771134726
0.31412084892535
0.32543455951197
0.325982565879966
0.338491612408231
0.327958522108503
0.349494802192765
0.354520664180457
0.354138410058837
0.358997499617361
0.368489033926414
0.36117057414537
0.386553286645728
0.375885219452708
0.369884426270251
0.372740828582267
0.367392197595262
0.387793729326078
0.396387001207195
0.427684690914974
0.4244503618519
0.423954227633138
0.408352567512259
0.401828665318383
0.413266097706118
0.407491225274923
0.440995207997295
0.424780388292124
0.453138409023819
0.439088482921593
0.453039590266706
0.465630048008476
0.458134251996699
0.446346005801261
0.468940125789808
0.47907247642514
0.456527679618112
0.470205694222534
0.487942620515074
0.482122895299774
0.483461956124943
0.494686750057063
0.523689134898689
0.513545240384327
0.533171409086673
0.536101349653504
0.519169630782945
0.514022520951263
0.529433813519035
0.561630402662384
0.527350666679564
0.525773503870523
0.526479472502524
0.567231972626565
0.581729502608549
0.589540011327873
0.589298644626341
0.584805039341716
0.564415942149846
0.602069105855329
0.596011403320696
0.613252167318666
0.591324232933727
0.622270282013647
0.628238306775576
0.64066382485623
0.652102306719412
0.634382130888079
0.615321851092015
0.660960780408412
0.634536906726969
0.649008118486759
0.659346676913024
0.655399469815702
0.633333649275932
0.655049006273608
0.676796564791931
0.686495238789918
0.671814321503113
0.700333996654793
0.691292377448663
0.730844297479027
0.72518046539588
0.73348981507613
0.72993384760708
0.716938980531599
0.693852154181831
0.74057802446241
0.758612985318916
0.724947318194625
0.699957647489704
0.748062960772417
0.74430499250417
0.778949562356337
0.750203133352873
0.804179506825982
0.782248382429379
0.811115577450688
0.808693510061279
0.834982834823178
0.815229886611092
0.832091512644704
0.787528344598878
0.801243941068044
0.781215045002347
0.833579908072674
0.754162147290478
0.817829773462716
0.802521425175426
0.85814063048288
0.853413995763096
0.854765744014278
0.865121258119126
0.877157607655514
0.834431522495976
0.898562141958169
0.893666656836476
0.926924737021457
0.896046945729359
0.925466845648359
0.890627418557829
0.989035025459197
0.898998784373054
0.922063701333418
0.938082418339957
0.917650255774034
0.919515548996993
1.00182132528761
0.938477838538758
0.933137666594829
0.93495661251856
0.994772072224287
0.954344498401293
0.986079029271392
1.00264861538398
1.03623926072496
0.959805042623318
1.01848628585876
0.999168859916134
1.00470099260002
0.954478075000672
1.10594313958476
1.03021217874978
1.1075516730748
1.07960982489844
1.03920132871118
1.00478394694415
1.10076526574437
1.03771760890306
1.081160625165
1.07501949566066
1.14833686832694
1.0552039538012
1.05428044811106
1.0532704990141
1.16105388104133
1.06250134621309
1.05625776888387
1.03916501320882
1.09567050572061
1.00323011123618
1.16461667080008
1.06068629275145
1.14506026299046
1.11144021412635
1.16678853251732
1.07683031679842
1.15000056985411
1.16652358817473
1.21354770504377
1.09187941608648
1.30850003698115
1.25102460984182
1.28212083654699
1.07741181243903
1.16907387711752
1.12020554268394
1.25234885717276
1.13909687724996
1.22065566130209
1.26540112112748
1.34914198557969
1.23856861762044
1.32414470321632
1.13731288441752
1.14689754370122
1.18817478121376
1.27849222578922
1.17330453149829
1.34477422156621
1.15470679813534
1.21576846782459
1.22571716113451
1.34022781773665
1.20456553880807
1.30750223930748
1.2192763977363
1.30555444036846
1.21357095679998
1.30974593496937
1.25095380533726
1.45670990352274
1.45876588561908
1.41981343818882
1.25564467174651
1.29259716261223
1.20513842505373
1.41904151054651
1.31042546232642
1.42695630839256
1.23986127113419
1.34163919462351
1.35200931155348
1.55922529046919
1.34981627293395
1.40293391370876
1.39592923676512
1.27354433917474
1.44235350148515
1.40129582453909
1.28578331963376
1.47895324220179
1.29968473681212
1.37404214200016
1.29756435848562
1.3579889742278
1.35940334939354
1.40443047525335
1.3263481503226
1.43329322526354
1.38931923607968
1.43275510541094
1.32678293843431
1.58141269204219
1.34824989841615
1.38639952621883
1.24565262210733
1.64890405930423
1.32745051004
1.34933504132999
1.33122830877518
1.59152258293289
1.30619296689133
1.42196846295776
1.31390291699522
1.64271192109193
1.54363127410453
1.54585859438341
1.27476268234031
1.53038750874785
1.39351893877257
1.44143531791347
1.39614467551024
1.45096455796864
1.34337886534026
1.55862109590177
1.40031854639475
1.4347688892915
1.4496107755307
1.60322147251269
1.41704589122966
1.44994496643215
1.35362808789493
1.5086355465998
1.37958539060321
1.52625971345114
1.53226795192111
1.45223401076152
1.33999448226088
1.47527346421112
1.36716221871264
1.53545912014514
1.38067790672397
1.39022917467297
1.6387119347701
1.82635430969647
1.47409801303394
1.67257899771336
1.37740050457293
1.49000240213435
1.41264943656933
1.74651932439345
1.36432907697176
1.57442799548654
1.50206611860499
1.44319254175425
1.39905831203934
1.49846552948685
1.41998702694437
1.49532559367659
1.37398363154643
1.46081103624683
1.46372820100442
1.5318502273339
1.43010448327549
1.5414985330009
1.5043062645993
1.69937076942914
1.36926624206071
1.49355935587482
1.3407370039564
1.60848717897914
1.48126230387391
1.59594138372267
1.53217512373709
1.55235694026125
1.4650421715133
1.62016616793454
1.54302958567944
1.49847243498677
1.4412854640543
1.4878639435312
1.41422591416188
1.66110706653365
1.38029350091114
1.54681793852764
1.36852631774047
1.55121197676457
1.35519097791885
1.51773664272992
1.39510978016033
1.67234603555982
1.49067665152899
1.48231042747609
1.47888862507095
1.52936084457012
1.50304777000569
1.47715542858838
1.50656138368711
1.48115366331069
1.41426945286768
1.39186190244121
1.49002454966984
1.62045059513824
1.38411671810837
1.54732158288752
1.51284366650082
1.55839548126121
1.49535467881721
1.53101820678549
1.41044197152709
1.50815079183252
1.39005959813236
1.48616904121682
1.52035601507342
1.6619433632362
1.40660551176804
1.63391613953476
1.40202041527392
1.46853927813867
1.44556513739191
1.42236917191913
1.47933723407299
1.55912982192434
1.50802071283361
1.50968307603548
1.38906111978755
1.46766228397799
1.53945128658088
1.55696675549262
1.40268634094907
1.42752696178687
1.30759975176308
1.46493652665851
1.37883082971124
1.33538915828825
1.42420903235807
1.47724134100278
1.41351614011615
1.47165382239792
1.33816718596552
1.48736710055954
1.44556308255743
1.46068048317553
1.42468590367994
1.42315696381826
1.39454324401113
1.46166356153376
1.3541843695158
1.41636699386126
1.32772590394277
1.39675921590323
1.36421400689052
1.47636549148688
1.42676865622188
1.46239650340657
1.37250619957304
1.40762366060244
1.36682034645842
1.43067941273667
1.36527627000149
1.33914253380292
1.33033957231535
1.55449305408252
1.32039228279287
1.3799341510043
1.29020842878757
1.42810165089392
1.32446715207964
1.36407131632791
1.28964316546458
1.31381552771955
1.31532704867978
1.37360610460069
1.35500350641488
1.39241702115478
1.27357821636222
1.33342785350675
1.27506000220428
1.34635752387897
1.293178390598
1.30623520528807
1.33287779122427
1.31155228350736
1.26430206246089
1.27755451111689
1.40104769000531
1.29658532209461
1.18404750461068
1.34651820531618
1.18578688049879
1.31313024554447
1.23244019375368
1.21453228968062
1.23293347428265
1.32742928631807
1.21959861610757
1.24687296420356
1.22710536840612
1.32325554255071
1.20075309236199
1.18311559237903
1.22882874156056
1.23846373515749
1.18697705526207
1.26561694964683
1.15891863657364
1.24864356650388
1.19282135285028
1.18209025903434
1.18541970151361
1.21014799154377
1.15675390908976
1.16396920138496
1.16918521675664
1.20500302210491
1.10527136870569
1.15115203575716
1.14125413901897
1.18052538948803
1.0931173194621
1.19228161779505
1.06340694633413
1.12818017290849
1.09035348701127
1.1159935538399
1.08585408032731
1.08948804748272
1.07340549974977
1.06833498249799
1.08089420573843
1.12228581162618
1.05358204605756
1.06533219138696
1.09899753460364
1.09209701147852
1.01783982041759
1.04685761782031
1.02930044898821
1.05006446353695
1.00067655576789
1.0331355799186
1.01998529048835
1.03433485644459
1.01673162917924
1.03012118880999
0.988098782023789
1.03938300702429
0.960522790718261
0.988023080190626
0.993171898664507
0.992777971142425
0.977549259576855
0.983068546066384
0.967518608119602
0.966381783184577
0.964214300774991
0.989765234770785
0.929043871355745
0.944242257697481
0.891355304730571
0.972726446329419
0.920858458295764
0.932927366202737
0.879604229330257
0.916994998689482
0.889585170564004
0.918929966977732
0.871378805577931
0.894046732398296
0.89413253464128
0.869882426605056
0.870320518066828
0.873820514416722
0.860649810602968
0.902884361171063
0.848070008985877
0.875235075117985
0.834640314469477
0.856812394011599
0.847603806271856
0.847941487720055
0.808558334774954
0.846419499305185
0.801017076278913
0.834316634550178
0.810937877403347
0.830214914982678
0.808255547453862
0.835382899997285
0.803063254860815
0.797413182148439
0.77015646456555
0.813341573616021
0.796368755507549
0.814337160314941
0.766963694498238
0.789537929215454
0.748388368635595
0.773369161624691
0.760052331226829
0.775342035915287
0.755080478254935
0.756865388963146
0.726560691462329
0.774482226116575
0.74691118137213
0.745359218712695
0.724582860314984
0.757442371832318
0.723548440930284
0.738928621750485
0.702509379287756
0.723429911102772
0.69034804843002
0.725433949975199
0.691053459192311
0.716508259549602
0.708441455643694
0.709778563649512
0.683976328673152
0.70316938012348
0.676977925263675
0.705381665903027
0.682925015355069
0.688776504954642
0.661739101002353
0.679057754154068
0.677827627573466
0.682894086869794
0.653228116352764
0.664975259309747
0.637214552504706
0.66587507174943
0.640256986741328
0.659497022923987
0.626442090072609
0.644662971349958
0.630670185231516
0.641681294640842
0.608851334070974
0.627836854896093
0.617454509339267
0.61513480957825
0.60165760037182
0.637147889272033
0.598573380023542
0.617102181542908
0.600889416180166
0.604593221731485
0.593738459936017
0.59037090211024
0.581842038567056
0.594651933684228
0.584953517486905
0.588171591255036
0.580659397931039
0.582954358239474
0.562974063690425
0.579808070350583
0.563708200607917
0.563521380262653
0.553565717537352
0.565224587999884
0.547090785287557
0.556622644982212
0.541862315669976
0.554651567182983
0.54182067369481
0.558448126161666
0.53452947695014
0.546235534599425
0.525543256233161
0.531428149408286
0.509312766338579
0.536933392713148
0.517914083073189
0.534591712104762
0.513275781232828
0.521275349660832
0.510589616617318
0.523384848546276
0.507890906806259
0.510278946407294
0.490599898295846
0.512299768497622
0.49567445587367
0.510538463544472
0.495181541892095
0.509149920122031
0.504459557714162
0.509544610821621
0.493302812591423
0.488696161973778
0.474766110279632
0.494643806433702
0.478839319074375
0.482825863900506
0.482594587244644
0.487694888098292
0.477518411374361
0.481507670313162
0.470114685918547
0.484037939423104
0.480325681464753
0.481808139260874
0.472870622151094
0.485212772962211
0.467740712751041
0.484481399843601
0.470459762164433
0.46744089212847
0.469735140138832
0.486336666617025
0.465201922295525
0.483823756253361
0.472956954795982
0.48530282319293
0.470985838202371
0.50174916672282
0.483297017410559
0.481675893621235
0.482182108214369
0.502658785260341
0.493297303705852
0.497669927082743
0.492803756742158
0.492249264595762
0.489653154530067
0.490959911384381
0.497267197044131
0.510739473320791
0.503016103222905
0.524917398266756
0.506749841152993
0.513320193054291
0.518364735483771
0.514113636480531
0.515339874784172
0.530937971028034
0.520306574123878
0.530229848149309
0.519977522634844
0.538930780076171
0.525910666454051
0.551968612131152
0.532256647829429
0.547569054582398
0.540878346613957
0.567595872122379
0.54898775783565
0.567581197138607
0.544941496981596
0.568290929793063
0.55166164836752
0.578366269005777
0.563051593820483
0.583293971080485
0.574569740477228
0.584808457037584
0.590759387299894
0.589911189320404
0.586158169810108
0.603461955880324
0.594844735921155
0.610405832022566
0.607748127371651
0.620559173690497
0.608444852839671
0.629581783244553
0.611789859560641
0.63281892557789
0.622016596985706
0.645431044562522
0.628979987247856
0.655432194998103
0.636191851832418
0.650285445711249
0.640084363998029
0.661177547683945
0.636634193614581
0.651406978603919
0.640751278529519
0.655939348566002
0.635487696276095
0.646800425927171
0.63521960015986
0.634081800958288
0.617469168099085
0.652635081346474
0.626330056690896
0.641437578977469
0.63676245707105
0.639354385852738
0.630277586780363
0.658628232581314
0.621137947419533
0.647899758457162
0.632149182610733
0.641080014369991
0.626581812485417
0.643831559081985
0.617607918258616
0.644716695066455
0.630496595834282
0.629586782731932
0.623702119711109
0.640177132273881
0.618659712679734
0.637871002548952
0.623650550465656
0.628598769008357
0.627996554805583
0.628541034579377
0.619800425747484
0.644443333027832
0.627647237049394
0.626840157198806
0.633830690798498
0.641911282734889
0.63556010743615
0.635231063822162
0.629958603389632
0.643632512885099
0.623795254739893
0.639851619234454
0.611812909380529
0.63050564488611
0.622079786838188
0.620057599647445
0.61119902676708
0.628072943141695
0.610823223315399
0.621977282407341
0.609983724462669
0.618177352062668
0.620865889909064
0.612942241382926
0.599446877633288
0.604164141006259
0.600913793976429
0.592789883719694
0.583556266782827
0.600970195744027
0.592376376474502
0.581473465801612
0.563074656223297
0.575848753136987
0.567453763419836
0.567408403713043
0.560671206544238
0.565290966994516
0.541044422622451
0.549430467712248
0.538852953956446
0.546663275854841
0.54043974530381
0.550154352979676
0.529628646549642
0.528274534831939
0.523994195892541
0.527884702534389
0.513918610392182
0.521076755621351
0.516416134252038
0.510041690323395
0.494225590988387
0.503425285802607
0.500018578704488
0.488659547574427
0.480662699423336
0.490338980252543
0.483450985017682
0.485942624055399
0.479708044817709
0.479944863106932
0.463368300207377
0.475623961918971
0.463015934246848
0.467500125819888
0.458079584062662
0.463696915552691
0.452963947335277
0.461846838361364
0.447288512740799
0.455564635270286
0.44691481560256
0.447275925650175
0.443433738426418
0.445884343830784
0.43923012770878
0.447393256386418
0.436853039775995
0.44059097516988
0.436955167127362
0.43179861801689
0.427150049676199
0.427776946132148
0.41811845904398
0.429480553547316
0.423386636059933
0.421220387288859
0.41253922338281
0.420143501704516
0.415091962676957
0.417743102493851
0.410738159483321
0.419895773366354
0.407834203933274
0.40447206523318
0.40239736427294
0.412963193174518
0.398057185691288
0.410494027507132
0.407598385913788
0.405218097970906
0.395038269074581
0.402245772787731
0.392400531526814
0.394266559206653
0.392764564685195
0.391555404765594
0.391988952336346
0.392919244781314
0.38753015438888
0.39512268357773
0.378887837625856
0.383249508492801
0.385905292037955
0.387307934461219
0.379269763591693
0.381509669398987
0.37449735707582
0.370427579704013
0.369860819733973
0.379473893829278
0.376882985996114
0.379103895681286
0.373113467520411
0.378933825860253
0.373519578051114
0.376489395046891
0.364569010117744
0.366852878503465
0.366300801694782
0.370223657946896
0.363423913667608
0.369258407499345
0.364121707678584
0.367532868150461
0.368288180859504
0.369919487389803
0.361202519329178
0.359574259719906
0.354447288531928
0.358808895177086
0.353851357742089
0.36218607621017
0.353155003225168
0.359696358106017
0.357895448724059
0.353904375543466
0.347470501286421
0.351236066124942
0.353645774344856
0.354857888557301
0.350727105208332
0.352942174353106
0.346258316484008
0.345265627500775
0.346392244962987
0.350930497946465
0.344979233950542
0.345317461226149
0.339045020480361
0.342042654654834
0.339438858817783
0.344659201438023
0.343157266280638
0.348605935739657
0.340950928020213
0.34289024516044
0.344016882814611
0.342641101152517
0.340010439921568
0.345595748749824
0.33728691775603
0.345032155582431
0.338200703473378
0.339964298322603
0.340750247901924
0.340365293072657
0.334849500092842
0.337176543700231
0.33192964519295
0.333824278651405
0.335736170876822
0.34065229739958
0.335954085013209
0.335579678186786
0.332536632697865
0.331495741107352
0.324511064112948
0.331871727924641
0.328789759416277
0.331364546646541
0.328348034284894
0.328552681463162
0.327763892651876
0.331724041327274
0.32528586149063
0.326519725550473
0.325572851094849
0.33046926132449
0.326807618754501
0.32286319240532
0.320943823263952
0.325941092759212
0.320204030669009
0.324990409373174
0.317176830068995
0.317571017568831
0.316451389640116
0.317226946375563
0.313316804882699
0.316970556425001
0.316933882674457
0.317271805399812
0.313027189750442
0.315151040089512
0.313706821767174
0.317832351469951
0.314476735955573
0.313501501545302
0.308459147934446
0.311569046083374
0.305476835301315
0.306044074444226
0.305894339464908
0.310717269556509
0.311042190318
0.308257419091418
0.307641306039828
0.306606027990736
0.300981563146447
0.306283135706338
0.29975580753223
0.307586400467509
0.301092820866445
0.299276078538946
0.304200059157545
0.299869827802518
0.29660663264791
0.300895431426483
0.294900372596662
0.297594166185428
0.298530205242503
0.299736641250577
0.293004092584385
0.295997946046947
0.290575557982347
0.294311242488861
0.290304350219605
0.290719968398275
0.286685791770139
0.288173120755251
0.287560968897039
0.28497124253482
0.281274356955758
0.290257646569508
0.282414002654642
0.282485078255956
0.283245515612311
0.281627776736101
0.277700399430489
0.284386852315149
0.278678549120413
0.277492868440195
0.274671144823331
0.274335831673001
0.274620075819329
0.274928376696966
0.268823811270048
0.273143121258107
0.272207167226228
0.271910462030635
0.265579806399706
0.270073305275583
0.266270672607073
0.264199155528443
0.265304893460019
0.267932631938931
0.261303382587281
0.260944164272499
0.257366550691815
0.263134334525245
0.260533717108953
0.259305061154499
0.255773634526031
0.258876536984184
0.25563178744886
0.259425238261021
0.25920251772744
0.255793822882496
0.250337741148955
0.251616081235241
0.25272819563561
0.254161977026372
0.257551233746051
0.252433295680189
0.251710103133152
0.249191249803041
0.245042246324831
0.249026841710003
0.246132791187228
0.246499791615478
0.242916016711411
0.242980844380723
0.244888957739123
0.245524970655925
0.239439568825595
0.242879355301693
0.238119478451754
0.242322918939159
0.240954273195784
0.23882579745726
0.239042378390998
0.239010138872267
0.234183956329452
0.237616648933912
0.235295809233579
0.233404171827047
0.232045069068235
0.233656458111274
0.232214174845791
0.230420408466358
0.228597609990818
0.232911667746015
0.233912144201959
0.230620265726696
0.226127050758685
0.226692861563603
0.226512634500024
0.228106111814136
0.227862827646451
0.229660325946418
0.228120556880436
0.223791396679563
0.220681929434238
0.226186503037418
0.22447844786517
0.224549603836393
0.222336314761375
0.224970865946895
0.224119081857846
0.220839955755883
0.216894065604676
0.22175930955783
0.219194894705477
0.220759779831486
0.220678027451955
0.21958469524874
0.219230164125045
0.220462466644013
0.215813971668449
0.217764542534968
0.221914364094051
0.21992350132657
0.217821717774814
0.217151878702322
0.215602684838754
0.218302811823871
0.218948623381876
0.215929982548198
0.213989371356556
0.214311203536617
0.21602478580179
0.21346913291219
0.21281871762724
0.212490538942855
0.210196565326978
0.211496707986052
0.213739037413116
0.213341012051041
0.209495974581763
0.207317146425168
0.210564995799301
0.209770302440265
0.208520432177032
0.209118991835134
0.207403486278811
0.20686348472408
0.208513022353049
0.203253307000368
0.204867126056325
0.206814358457187
0.20405495280248
0.205388808083441
0.204833747506169
0.204274924885127
0.203858273025525
0.20749083569259
0.203633794571492
0.20431157260635
0.201732061953295
0.204369540450212
0.203353737010496
0.202076593656853
0.197280770991228
0.198395668133504
0.200261231459408
0.201335632713208
0.198202144754462
0.200745842987715
0.199660540557841
0.195393801666213
0.197735803853921
0.199225587262986
0.195962861375907
0.19658016442095
0.195263965717614
0.192988441005315
0.194962496637417
0.197437664812928
0.196009928822759
0.192916876613622
0.195834583230951
0.195622368228266
0.193068569023819
0.192391769386832
0.1938769340939
0.192868346370329
0.191844985330492
0.1950790640626
0.190206123924917
0.190163287656072
0.193610117591481
0.191086253724839
0.19112317599038
0.188610873122961
0.190511820900181
0.189152753019139
0.194793069078094
0.188867967218925
0.189888685131287
0.187998443178289
0.189435569037137
0.186470101778528
0.188743381316163
0.184443575918836
0.182313818308794
0.183816486593905
0.184241591355535
0.18090176703701
0.183952134321543
0.184138837175048
0.183826684026756
0.182690523063612
0.181296253933254
0.181589654902193
0.178368676121577
0.178035047173584
0.177490055729706
0.181300657915813
0.179687416484704
0.178528290587506
0.178714405477252
0.17415824540906
0.176146534575012
0.17101710862122
0.172264326003036
0.171338853624402
0.170659842180547
0.17269694992501
0.17161699083681
0.170188625829791
0.17001124647778
0.1692546365783
0.171348778578813
0.169464627366569
0.169196260685172
0.166189929856735
0.166063066991737
0.168381504106651
0.165269180110905
0.160832258449984
0.165404303790657
0.167676883402551
0.164427878980462
0.161693932948913
0.164350256396353
0.162763568549254
0.161901572806045
0.16090573879966
0.165615462673869
0.161266276875062
0.164534500517063
0.158398249004395
0.157034735252436
0.156764568989378
0.158227866152558
0.155440193763139
0.155942878618016
0.155627632093142
0.155968831565147
0.156458489594251
0.154396404942987
0.153181827170212
0.154603200330214
0.150863823459871
0.155992292004284
0.152207472872938
0.154356240536863
0.150700393192324
0.149575214118219
0.148841286317237
0.150740480521415
0.150421252992136
0.147238085143022
0.143853613974028
0.151928429803818
0.145224212777268
0.152192097781984
0.145073673490718
0.145595114525077
0.141195298931727
0.144180363187893
0.143153447149238
0.144369817642255
0.140948130677839
0.140651326545429
0.140342066146517
0.144179900910344
0.139362318482733
0.140668361122351
0.139500630761213
0.141312238199166
0.139864343760348
0.137218962550977
0.13873605656537
0.140323107703986
0.136762506830279
0.139214800660673
0.136348220778618
0.137834268367989
0.135687594398505
0.13840377995218
0.133254937798759
0.136020062807566
0.131875075779915
0.138456156937438
0.135685644601816
0.134449858793184
0.133865882019393
0.132680510671685
0.128460917496212
0.13454212647481
0.129554513027656
0.131805364985231
0.132258663200658
0.133228225459534
0.131386536390987
0.133927469634007
0.132287301038995
0.131915768885418
0.126221871107911
0.133642105039281
0.126731524236912
0.129274654807204
0.123141307677894
0.129030629346174
0.122087789360756
0.132625873131902
0.121725192444233
0.12830013320106
0.122543254284889
0.129596253990873
0.12634118329192
0.133527008192372
0.118865358439475
0.123766307793465
0.117733918820111
0.131977795892579
0.120511097077332
0.125769106539254
0.119147159474243
0.125697492454948
0.10893004173967
0.123312721604422
0.112291168523473
0.124171782935523
0.116363112464513
0.122470010302657
0.116919869563697
0.124019041495119
0.112652389158055
0.125718834690929
0.109106739488789
0.130456599820063
0.115650351766447
0.12333958043002
0.106812618297747
0.126902701297919
0.107975529348571
0.125208655276977
0.10617335824247
0.126304441859474
0.10305197718264
0.118871336700554
0.10533026799948
0.12449652985388
0.0984149392606898
0.126509280144282
0.104592770231135
0.133229765406257
0.107736123160031
0.126400482660677
0.0988512235885311
0.121756986216312
0.100085891704705
0.129820819424552
0.111442165332959
0.123320864333165
0.104648783759066
0.116519408109458
0.114410219039592
0.119009485427612
0.118679436217962
0.106792415143335
0.124046645404564
0.103660301237903
0.130193032746222
0.0914103851007768
0.137521220619061
0.0912021291536041
0.135044398924507
0.0885120682505422
0.134237188184528
0.0905626997942467
0.128002667494624
0.10025767733089
0.12283672281464
0.106528292509755
0.117718827127478
0.111783126772689
0.112174395393839
0.11386810235146
0.111530544169107
0.112105540080198
0.114732121586423
0.108818489924277
0.11539303324058
0.108113488432737
0.117313968106752
0.103553652770517
0.116650081548718
0.109047256753784
0.11414817223366
0.110432939926986
0.113314410688937
0.109532593252605
0.112887263571638
0.112085179752579
0.114828900618892
0.107642637026046
0.115432245505956
0.110722564045499
0.114321725456256
0.107329319732485
0.112763311536607
0.105315784477822
0.111697349048551
0.110259195733527
0.113985130840161
0.10837685148396
0.112628024441869
0.108158542257952
0.113486277396307
0.109023588648923
0.112283814952417
0.109701149254487
0.115932538183069
0.111845194271793
0.112513983277201
0.109818421502037
0.114762650850835
0.111500294958948
0.113611684752079
0.107733645455316
0.114206578743326
0.109740991860945
0.111318480700678
0.110223913700088
0.110479309326895
0.112004406376523
0.112312790038764
0.108138745072425
0.11275555460792
0.112223961426827
0.112082867703002
0.111679456587515
0.112969420017404
0.108910874772676
0.113483097837612
0.109784287357384
0.111138676288178
0.111604961663347
0.110801195108233
0.110399748796772
0.111416307514091
0.111874096008751
0.110655079251198
0.110799533547722
0.111485836172241
0.113781843506206
0.111326676163798
0.112166705391859
0.110616114323798
0.112078228005936
0.110310718273803
0.108660180826417
0.111092653849233
0.111988719470619
0.115124720660682
0.11176046228009
0.112458222151785
0.112712493842444
0.112909847588255
0.110105465840773
0.111288194362543
0.110803233022763
0.112662018371873
0.110733326227886
0.114863923151505
0.112920966856548
0.112640420692736
0.113603143400329
0.11116413804293
0.11484014657461
0.115299147672615
0.112560097150683
0.112164723761402
0.113217438848607
0.113287307217752
0.116490575038301
0.113896701057056
0.113608989397031
0.116304593997095
0.113978047852684
0.114072022969123
0.114694967090394
0.116124877458547
0.11357016495922
0.116518851827495
0.115850698377862
0.115822245560172
0.11507478985602
0.11367392277442
0.115346016088793
0.118308194871532
0.113331353268106
0.118181439323983
0.115667649365412
0.117684088693939
0.115294550616375
0.117795568608858
0.116853978794615
0.117080638426092
0.117335401387913
0.117651557600426
0.117564855445622
0.116143368701723
0.116881908410617
0.119369528869727
0.116802708487905
0.120266944020383
0.11902345153763
0.119646458070014
0.117696713210699
0.120458778380363
0.117584357998936
0.120428432116135
0.120621878422998
0.118676020002916
0.118074960870492
0.117953249515633
0.118940140942746
0.118325966668653
0.119872851751867
0.120826215163419
0.121547506815608
0.116933294179633
0.121512826863691
0.119550016273977
0.119856562044168
0.121120396802261
0.121631740935736
0.122554612288816
0.121682700255781
0.123003023824186
0.12425761884296
0.12544782067065
0.121242949771426
0.123718677005128
0.120250097538745
0.121357480592291
0.12182621478917
0.123701373601691
0.121974744533913
0.124810409071889
0.125008381386832
0.121133627002961
0.126288311664996
0.125396661615821
0.123016858916819
0.122554325518671
0.123577084196652
0.123188060470877
0.122979653579424
0.123945340959385
0.12253247334042
0.120415360608784
0.122426215026047
0.122780696212199
0.122408514512187
0.11737317325363
0.120032362195013
0.122532938412471
0.120580478315899
0.121529951634974
0.118825856627715
0.120729891162231
0.120303244995856
0.118944681489524
0.120098211995827
0.117710005668822
0.122145506064496
0.120672016830005
0.118001287391575
0.119748498291627
0.119734929746304
0.120118047533254
0.117701160538153
0.11759841581162
0.11902280695187
0.119635080472834
0.118472129949491
0.118758205488985
0.118650432576245
0.11793227582689
0.119387656501264
0.118818646719205
0.119690802222152
0.116399065603101
0.118166211373807
0.118277938369067
0.115577159654941
0.118742904224128
0.116980057848471
0.115750634087619
0.118137238621056
0.115691177323305
0.115034253856651
0.116119080615302
0.112930054269405
0.117201831809614
0.116613018902881
0.114832612470928
0.115764816402209
0.114477330762294
0.117165510012775
0.115133267149556
0.115711990910858
0.112357422337461
0.114483973915351
0.112964256801503
0.116332558965854
0.115774060385762
0.115248303484306
0.116082154005606
0.114338895339089
0.11337507348058
0.115929846069669
0.113908930273584
0.11418079678458
0.114044948485526
0.112639647722224
0.114637235405693
0.112144460215196
0.111871719431771
0.111498847594608
0.113792025420702
0.112446454937076
0.1122998595192
0.110213875729934
0.111297023334201
0.112976162814839
0.112459392918216
0.11327152118984
0.110888128411807
0.112249451418465
0.111728917951952
0.112683440270408
0.109287197786266
0.115816819600327
0.109594056539871
0.111495248848926
0.110925807986304
0.111109253978805
0.115317946053718
0.11407287980791
0.111335377888597
0.111685403128726
0.111229122273319
0.111444140548876
0.109715688862064
0.109821910365214
0.111985425644908
0.108752843117237
0.108539569050835
0.112754981950612
0.108133161676424
0.109864010286669
0.109477441222513
0.10733571275163
0.108184021433221
0.110209769681945
0.109815502403415
0.104468708897427
0.10795827061091
0.109639905034503
0.106382884580743
0.108317784703538
0.107021109789917
0.107611176705405
0.104917576457208
0.1063372652099
0.10624347795124
0.106022960188025
0.104830222708039
0.105056298672079
0.104712224570536
0.103923670143025
0.103642921261501
0.104860993944261
0.103487958396035
0.101551466422476
0.100781826333571
0.102319646998088
0.102374206203846
0.100961129316616
0.0986129542452589
0.103888314979467
0.101424498785419
0.101029240644596
0.0985875512249931
0.103881595401444
0.0977803200577746
0.100698204981378
0.0964067791751693
0.098710844314177
0.0994413392456431
0.0994417544266171
0.0963149750362209
0.0976801636644133
0.0964611231140094
0.0976882689032604
0.0931705368815335
0.0947409635441147
0.0945382920253267
0.0952555453744776
0.092592466234143
0.0977897944433562
0.0935450144935401
0.0964240321405239
0.093414121309939
0.0964427553566787
0.0907205709639724
0.0950427098200697
0.0918628529489691
0.0962831225389271
0.0908071804220651
0.0959131517509268
0.0926052803860294
0.0926868584310636
0.0940291287601983
0.0919509618439388
0.0914154437557765
0.0894940374218916
0.0925557184342066
0.0918916755524816
0.0897584092228968
0.0910495599345602
0.0925354352007895
0.0894469514390188
0.089463529109316
0.0879500657531233
0.0884286807324133
0.0898753426354192
0.0907379610454042
0.0902072760305175
0.0869198669282752
0.0903494854618917
0.0897598159187793
0.0877106525292146
0.0899197150263735
0.0888650675072274
0.0892976517139587
0.0879160575984207
0.089526605027638
0.085343960463127
0.0885802388049736
0.0858423102059502
0.0891806182251971
0.0880751055961788
0.0895546096476138
0.0888715723559117
0.0866034937895176
0.0881967881520939
0.086586381236506
0.0879066492487178
0.0873752680039502
0.0884991351440791
0.0867380333705075
0.0845045754926677
0.0854423946717132
0.0837097257555802
0.0842016123108667
0.0834248455157054
0.0861685443399741
0.0838957021505252
0.0862634178114156
0.0828891873868679
0.0868673341933989
0.0849874222246237
0.0892946062141118
0.0920165279446487
0.0793869568128872
0.0887425955960119
0.0815447091607943
0.0856201938274989
0.0822238888247743
0.0854462958994831
0.0821980610367975
0.0867504703724024
0.0825749366595626
0.0842614418769699
0.081376320473844
0.0843527569697565
0.0817271636800961
0.0866756787246736
0.0824645412430363
0.0846598954063013
0.0790630258728376
0.0853168139753929
0.0815205938764192
0.0828332811225748
0.0853733107468233
0.0832224695542532
0.0782878950113553
0.088153917585238
0.0753133835814338
0.0940447247740142
0.0785921369153982
0.0861345295090404
0.0802795690017507
0.0819256418081631
0.0811153616125297
0.0854475261868108
0.0803143566164426
0.0843298235978726
0.0860401742603883
0.0802220332608874
0.0851260403433782
0.079132513421722
0.0810857864617647
0.0808128472154041
0.0810590702176215
0.0817525048340829
0.0817214107634386
0.0826030948028343
0.0791125536290724
0.0835268040554301
0.0815873081462341
0.0833679188728947
0.0805591477010634
0.0838271877718744
0.0823598510372469
0.0818224239247021
0.0787661300156398
0.080094923195898
0.0815433788382676
0.0847422239941751
0.0902103936885553
0.074507100359822
0.0861543834462474
0.0771244434707179
0.0835252313299856
0.0790456502664983
0.0827671113337185
0.081225418485829
0.0825496336255262
0.0786339293981069
0.0841780485002404
0.0788442236114425
0.080868877456711
0.0814684828081284
0.0809687762503642
0.0836537861245636
0.0801581375004667
0.0817967564952712
0.0769461681304612
0.086980766540786
0.0793944321359844
0.088826266076527
0.0853902278834263
0.0810327151242627
0.0845914024557216
0.0796119442486241
0.0807128377475947
0.0799176963893529
0.0835921378951831
0.0787023762389603
0.0842268444311373
0.0779901350810068
0.0846674610942363
0.0782330913071181
0.0829030194783773
0.0803546411963092
0.0844225664905802
0.0793366925078277
0.0837932208712678
0.0776258053753611
0.0862766188231002
0.0758636229614269
0.0859250391754105
0.0764494900900403
0.0878182040573239
0.077557718538594
0.0885047204380082
0.0731071273259139
0.0939751052718737
0.0893494673189768
0.0781293106642513
0.0906708676707097
0.0788257527334169
0.0872378286049121
0.0810008948043785
0.0847289330621079
0.0850161198518247
0.0831423694990056
0.0827504642336742
0.0863138163912013
0.080555396418721
0.0822946425229703
0.0815278355126676
0.08637645476652
0.0947010505699126
0.0823966170262724
0.0881236740881122
0.086935473046172
0.0781076534751426
0.0978446652247998
0.0794850216674179
0.0919262276849206
0.0844927459920389
0.0845301722340369
0.08721382480264
0.0889173130788727
0.0876670836394635
0.0897255307204988
0.0892487449004497
0.0852858187991325
0.0885756655867797
0.0837422135160573
0.087884601158345
0.0875914910462443
0.0890358112349485
0.0916126281000199
0.0854824841503984
0.0915266458834191
0.0906364029968991
0.0897137687503975
0.090772935447381
0.0892493316007667
0.0912140088662735
0.090205284085183
0.0962342481575283
0.0910759374580656
0.0959031968314807
0.0957122306520995
0.0910395718476972
0.093950452127567
0.0934032272213582
0.0987875673086722
0.0914757468499671
0.0896705091806212
0.113161061356076
0.0836795701988737
0.110751830886197
0.0856312297368254
0.102566063604437
0.087285494495425
0.106172837515762
0.0856190452168428
0.104938450208117
0.0911730051936347
0.0996945043300429
0.0972648227004819
0.0951736793659697
0.101336777512463
0.0971559096880567
0.101461758493867
0.09895026519532
0.0984868559116609
0.099948158839198
0.106439106223061
0.0905054229105795
0.119316633696406
0.0989359992293351
0.101672627030431
0.109260009298328
0.0983747342898533
0.122395931483707
0.0986941569320696
0.106760098935909
0.10326980854117
0.103417362290008
0.109900627139111
0.101062636885134
0.119015524906632
0.109221204907886
0.105082589286626
0.115944706679859
0.103011739042764
0.120548820540834
0.11338961977445
0.112565931928899
0.111804245026115
0.120215912098065
0.109815276494503
0.123699615928865
0.128355992134137
0.109011277545355
0.140028247206386
0.113640426505994
0.136889411681592
0.118829285993392
0.131725592146437
0.122541105090569
0.13902875330443
0.12277731591057
0.134609875405488
0.122053840818936
0.148480682015038
0.122805332803026
0.14426658126279
0.133689076120737
0.137257551909312
0.143529449399497
0.167260133314216
0.140008080618849
0.151688806736074
0.141697558171672
0.161593678177149
0.14761774478859
0.154676178578174
0.15601309243325
0.153455742208328
0.156678469704465
0.158707739248009
0.166655154524512
0.166582624351332
0.159418526353692
0.170434317230404
0.159485930041656
0.187907758672523
0.167908359644774
0.195163020069509
0.169902172537223
0.189377901115322
0.178589904003269
0.180984707198739
0.180917587806026
0.180024854740577
0.187877438616921
0.188968324898523
0.190844987185891
0.192022606226163
0.196392617470634
0.207789732784115
0.192941372033837
0.227982238395465
0.196118752149608
0.222967464285887
0.186306190642617
0.29837731355042
0.227754514068108
0.230984087638028
0.245551142096409
0.221927255089582
0.281325858724635
0.256951894201145
0.265215531511462
0.271051338326251
0.277340498021631
0.288724427193931
0.299685943921386
0.300131880078544
0.316925599123225
0.323842323131816
0.319632823495071
0.32514152908041
0.38210884007433
0.360863914374846
0.371188758923718
0.366524798733186
0.385310999909153
0.398004494866192
0.399888745656415
0.402998242200255
0.426299825999331
0.405583532179724
0.482053267542475
0.446129817406511
0.471467220053975
0.45697100067729
0.489981544545926
0.479935078809659
0.500273943256554
0.532117682662751
0.504061867446018
0.544402167504993
0.528597310242976
0.55946606333254
0.545306966075679
0.587598263792702
0.57872643772839
0.576987829555381
0.588459597542957
0.601702597721618
0.619912967369387
0.612122062485867
0.625576806482154
0.630999959886548
0.639240110212819
0.65651525778493
0.723782317002654
0.683610375146292
0.626594318443497
0.656499358302474
0.620942674941096
0.689167853213427
0.664660882638906
0.674808868679588
0.696772885638642
0.659382030028729
0.667279033075579
0.662339612520176
0.66812945218156
0.659392203554305
0.666196322493622
0.661705021380838
0.673557029808269
0.688334045196912
0.619916482004037
0.772094011316549
0.665042654216922
0.672005697778175
0.658761418515174
0.669248480120735
0.648867304866381
0.658283493757911
0.650167778325801
0.688176107411784
0.644991701026535
0.643900574828919
0.629162074351932
0.637263943791511
0.648653673618282
0.612352566144763
0.60709342762317
0.607399076261643
0.595061495283486
0.599114933700673
0.582423737115388
0.640796455287506
0.577528953964573
0.56892702440433
0.561550181580798
0.56108494460783
0.553148797322068
0.550818207549601
0.543431274893454
0.544602025863632
0.531367348620685
0.533344091719411
0.519301085371505
0.524166244642673
0.521510370218803
0.509014127163555
0.513610834277824
0.503819962588435
0.502323676302438
0.49893549974347
0.505136007426764
0.503796173718004
0.496756052456247
0.503745444876314
0.496069325685238
0.492526723715064
0.489546829990133
0.490296216322858
0.492857516179865
0.490645305900961
0.48997875511365
0.480004380282792
0.482205075559987
0.482671617782466
0.482276399934254
0.476202414147737
0.483531719080887
0.482313203106733
0.476843746762106
0.475728131122179
0.481116191410049
0.470230834289318
0.474491403919839
0.468171354182742
0.478246634680539
0.494724173808028
0.454482681579017
0.474274781749755
0.45860470502782
0.466352810683069
0.452290956113198
0.474500392493973
0.475022502532316
0.453935003301191
0.457802719760397
0.45589949718663
0.446476828888464
0.460009096920613
0.446577233138917
0.45572673717311
0.450712169311508
0.433308723038788
0.513722348850586
0.440356850737711
0.494276811534731
0.440196876030754
0.448710113462731
0.435178591790891
0.46826151743743
0.443823539501128
0.444620703274244
0.448299756259388
0.431928441352473
0.457259532849118
0.436515917820617
0.449048556047495
0.434202596863287
0.435732913514245
0.456360848141917
0.439121302419618
0.434094758916273
0.455836242046751
0.430881442351606
0.435059515396478
0.465325859364664
0.430510115026623
0.418274723807962
0.41401976098412
0.418991838484646
0.413592094321993
0.426759021395971
0.417499789853345
0.398707575649144
0.407522985760056
0.391295948488233
0.407965874596263
0.391097652482496
0.403584053491499
0.381014086329803
0.393305367219509
0.388487056872824
0.367684238224163
0.393903203187498
0.378008858139383
0.397482478065821
0.372990206249
0.377355547683216
0.362208705342461
0.391024751496649
0.364788002900577
0.367763171473829
0.36444820470117
0.353852576142219
0.362687211032661
0.354043260884148
0.343018065948729
0.362776149940654
0.337440920676936
0.357421108915623
0.378195524324411
0.347431315377735
0.333524320135867
0.329242093171651
0.331578300284978
0.335471962720055
0.325359381517158
0.335818441320478
0.319471091352461
0.348487215557465
0.315970506858946
0.344605442825628
0.336211640347663
0.330531733463395
0.334405393423343
0.339241638012122
0.333033661460711
0.356393440143287
0.346151279269041
0.357353389859735
0.330976876375511
0.358169417376503
0.349392205624169
0.354939675994801
0.357593042116004
0.362826033171923
0.366215278251633
0.375951411748607
0.384149897454778
0.390245380303209
0.393799523553223
0.407145628912534
0.398761621272047
0.434208476519017
0.421266488174093
0.422467447106508
0.462231265221629
0.441090871669238
0.480486511925412
0.460602522632728
0.474033948165183
0.480966705734823
0.485284202803467
0.49880949694747
0.49026104613547
0.526780474782165
0.521791021730974
0.515914290090589
0.527059907088413
0.528143330668731
0.532290089768282
0.540105634973385
0.574488820521323
0.519675886597562
0.59229292492053
0.561856114742273
0.569402820383006
0.56099423143129
0.568834598865903
0.577024534984333
0.570897880193192
0.578901500149384
0.577952267723294
0.593615258313126
0.587568795106282
0.583917262578374
0.591728206680756
0.588348563735386
0.600698649832569
0.600061589523536
0.599857684589959
0.603602870771904
0.60649737378905
0.620194388225501
0.607204185925943
0.649566628084175
0.650566166521371
0.6178901648345
0.633896146824925
0.63303039824717
0.636015380956181
0.638414767257338
0.652947147198526
0.661478574040391
0.656393433614687
0.655774697207601
0.658070498218736
0.667141518160027
0.664242134497389
0.678092026861116
0.69031448964611
0.677404172164439
0.694010743035462
0.66282147005592
0.735513602212876
0.6934238423792
0.700668334651397
0.710192544333625
0.705510148500035
0.702356292014048
0.70293446458086
0.715534118447161
0.714000029531065
0.71084311853733
0.705436368238174
0.710330619324886
0.712992349009777
0.717153309065758
0.707159953048099
0.72212432742388
0.714998521591933
0.70944305566212
0.717535855148266
0.714191786361725
0.708733907229846
0.7111489535196
0.729822061058802
0.709675246960676
0.710707698221108
0.71163157647069
0.719659803548758
0.707836379732905
0.702580295509775
0.704137508965019
0.69928746526293
0.699924244718656
0.72089249397895
0.707219305899762
0.723914860536503
0.721135360532115
0.715849187731711
0.725863751556089
0.726794304450216
0.730538285098209
0.733875399131179
0.733085592986174
0.742607286561161
0.747368096479142
0.746511095167894
0.754162859954554
0.746246314122579
0.756576978489154
0.76426696335027
0.764051072565188
0.757104600634753
0.75985642870387
0.756884350412957
0.746844119457497
0.750675312118556
0.756555371388069
0.737620463447961
0.740864547262525
0.734509538616169
0.732721461084169
0.730634674299804
0.732217647270352
0.718705855213436
0.724767827067738
0.709527828075128
0.715241568181597
0.700130759132068
0.703207929880018
0.697189837475651
0.701172739855803
0.696325010648415
0.688724540275895
0.682877872329724
0.68252580746363
0.680968422765285
0.676787162095875
0.67701834279659
0.68275665200139
0.681349714181344
0.681723870068071
0.67355139670978
0.672806995316895
0.672990571810471
0.673013405387109
0.674249202715936
0.687373058645305
0.672291938005827
0.683543388565112
0.667904909946033
0.676041592611528
0.665999729489638
0.668244495601426
0.670851736252442
0.669968759675998
0.66829076093051
0.670652890821521
0.665336943583982
0.667004771358268
0.667223389448589
0.668423030947698
0.666232119860343
0.662334721300077
0.66653508274755
0.66195399871496
0.665054984503807
0.657548385427681
0.659578425560416
0.654311980256457
0.664246545512845
0.66133868245487
0.654573705918039
0.661139037571686
0.657884748087811
0.655024535670082
0.656258971027385
0.657948202334804
0.659813309098977
0.66131088267946
0.658625076453935
0.658382947322825
0.652381917827322
0.652760899594865
0.659855533614086
0.656132200886557
0.647683569776584
0.641672230525141
0.643682789286872
0.641971145514433
0.632149968199374
0.630552106120493
0.630481034653048
0.627939295453835
0.622373320109178
0.612923239909462
0.616994638004745
0.610997990771308
0.598611094064807
0.601175036265744
0.5929693049976
0.588224285524633
0.589351011645921
0.594574361314506
0.589130194278154
0.584372451186176
0.579053491714678
0.581054567748939
0.581172073033419
0.577911212470699
0.570263814794159
0.573014286985185
0.573873739602214
0.57461293125858
0.577982969834883
0.57967451238342
0.575227389897808
0.578701038358189
0.581655204103721
0.586391855292995
0.588975811070723
0.588108237485432
0.585752723603331
0.594207096335525
0.594454122646569
0.592498634829239
0.59491762332485
0.59862672455222
0.600866336095132
0.600533414327812
0.606161822047951
0.608042423419041
0.61006487501869
0.608008197955487
0.609387062121763
0.607557541401397
0.604256082775183
0.61468775945281
0.611442478676469
0.613244119232788
0.610601528360344
0.60597853654207
0.608219468358747
0.607873576934526
0.606898151874596
0.604592524140609
0.610175219980876
0.604942973107277
0.597260450957818
0.598773456721205
0.593243092989532
0.594461037663938
0.593151792292855
0.593484542467749
0.592062663208437
0.586614224072036
0.589557341408996
0.582715651089114
0.584133986241054
0.586464719292495
0.581712878558218
0.580541262047244
0.576964789983657
0.5768087138395
0.574543166817908
0.573768030274802
0.569791309401243
0.571504570891691
0.573212303454013
0.570669057158828
0.569093164609278
0.560581725055618
0.56167733168674
0.559983546661148
0.554974099207417
0.552960953264113
0.546103930596998
0.543322054373505
0.54056588666055
0.537304456423158
0.534768452398209
0.535657802974112
0.526488703778495
0.528667611419774
0.52091842013476
0.520209256114062
0.512373115316677
0.516899072120977
0.509966765255283
0.503908608067913
0.505485475511466
0.504458186513315
0.501599907398917
0.503665160362251
0.502901036646176
0.501912017977067
0.498099312952791
0.495407567416503
0.4908059431313
0.490563788052477
0.489893328677921
0.488358108877654
0.481688601777192
0.476430871675165
0.470086728094078
0.463814349919381
0.455447898756304
0.451265448843373
0.444222633011488
0.44135656546759
0.435076549144255
0.437099557948243
0.430759295015345
0.433893887396634
0.435127221374568
0.433021794763907
0.440479359352742
0.446250189391026
0.454884372966488
0.466459657323154
0.475501889125776
0.488038922364323
0.500515841209672
0.51984723579426
0.534852106325251
0.551462084138732
0.569847551280261
0.5861613138949
0.606151487427575
0.626991699477392
0.644762638372224
0.668537082294666
0.682465421052731
0.697418794411772
0.725816133077038
0.740654655720818
0.755350434256908
0.780376715801317
0.796052472266261
0.815881358035025
0.83597600110659
0.856516143042952
0.874279322986908
0.887152670268281
0.901116695301296
0.918965076323327
0.927352328631523
0.944053804369581
0.952708661745351
0.954459431923392
0.963266970313444
0.970558376716411
0.978058819267195
0.97687031684202
0.977082356971675
0.979056328636906
0.968078213473877
0.973501354444385
0.966675234242066
0.97318024563895
0.971850860075916
0.963867923539827
0.969694680486294
0.971255152896223
0.968471324202476
0.970716312590596
0.97226361093442
0.986903980018664
0.986246703933496
0.983161590601035
0.993116101229815
1.0005706882636
1.01082166456966
1.00613873005975
1.00898524160962
1.01320413975661
1.03035655797134
1.02751880582366
1.0504997764953
1.07034896979224
1.07977144128144
1.10399945628269
1.11368561983266
1.12428192639701
1.13780091732603
1.15364927853417
1.15411765766074
1.15410938615678
1.15550277019151
1.17161294428433
1.17824611428832
1.17224690796895
1.1511974774177
1.15538444150348
1.17191120820295
1.15481480873596
1.15352337097051
1.15136377548891
1.14765405862392
1.16279961616707
1.15748749079884
1.17163353520344
1.18486552439651
1.15741338672319
1.21010605653991
1.21268326650071
1.2248545080977
1.25049800093595
1.26084805340237
1.25585860447681
1.2791713559631
1.29264321049542
1.31764716929144
1.31858332284194
1.33182221683811
1.3704701073356
1.38422350230148
1.37402690504334
1.40769874653698
1.4467973854656
1.45723980586522
1.47490701664186
1.50064567416806
1.5301824474231
1.59394960156877
1.60713013657544
1.63039406442321
1.61968997666158
1.66469333987619
1.72613008928011
1.72971353960129
1.7688605130123
1.66757577551209
1.7833901420815
1.72290316306557
1.75693965775445
1.88041845747237
1.84314475893117
1.84107591077174
1.83154815010469
1.81099994895313
1.8073885982811
1.82865910902581
1.74477139791374
1.86283246056344
1.85164740910173
1.83618919622182
1.72513935042533
1.84899646417352
1.77714580044835
1.89816429227703
1.86817142049658
1.81070753177277
1.76725586314656
1.84831923667456
1.80391734879281
1.85336832359789
1.83499890563144
1.86281031623919
1.88389684579673
1.92787944554674
1.90505787990567
2.03675896893901
1.88217021393459
2.06876170957983
2.07815456123501
2.04058162818188
2.08738699633252
1.97778026949505
1.96884068490347
2.06705313804109
2.16010509810467
2.36714066291482
2.08284916178745
2.13059316406715
1.9770782718338
5
1.97862378540336
2.84216801712469
2.25049531168387
2.3584899334872
2.28307439414895
2.13093436342723
1.99328515231764
2.39489348469784
2.36876662209299
3.08619630084284
2.16040360886407
2.22776160667452
2.33501379204887
2.34366874892433
2.64676730748303
2.41236142240041
2.32892100367986
2.22141928223387
2.31078678700586
2.83432405508851
2.40494998521024
2.3445218022242
2.16460806092712
2.18324674999392
1.95427556580079
2.26023366289588
2.104654109113
2.31143413783681
1.93898192964211
2.07979244273387
1.92417244900439
1.8795772792983
1.82174624431406
1.88741377698448
1.86309927577183
1.96433498923491
1.74574042305303
1.95535356538482
1.93091112183801
1.89808583146787
1.71110844493314
1.83664832756464
1.74689635682624
1.81455130427419
1.70919314073799
1.78636697574141
1.66654117352288
1.76095702142135
1.65672669121123
1.66464090678014
1.60589673085899
1.62416559279159
1.57253726569217
1.54336834080452
1.51690700847952
1.54014050434593
1.44142771933247
1.39375803533475
1.36022538811292
1.29669398484949
1.27795713048044
1.24128639481161
1.19049108318886
1.1331052534134
1.09288465658408
1.04726367235268
1.01598693976518
0.978647219589814
0.937558641769529
0.926446537162189
0.891234632380377
0.867403271584635
0.826129227709464
0.815664643312439
0.781925340614115
0.778384333707741
0.756267506779167
0.739741679589634
0.725072952344515
0.736736290948743
0.713858858351545
0.712146883811924
0.699843819184763
0.694218724125048
0.690040940751985
0.688043017517212
0.680246962044031
0.687253644151584
0.694452103887076
0.692196155011385
0.691423079543082
0.709036957084832
0.692026123176853
0.699040666766353
0.70406199509276
0.70292697175921
0.686836702025
0.691623584327226
0.689236961815449
0.696171224365281
0.677812283793775
0.684784153570348
0.680511498194708
0.687837236955298
0.668465259771265
0.673457256755998
0.66882962511668
0.676154304052202
0.677683408834659
0.672827656454203
0.666781601438768
0.67811472653989
0.67671870199877
0.681620017233299
0.673301549719689
0.678690063634091
0.681473099517137
0.685241287058968
0.690093359668669
0.690495102515919
0.688005418692826
0.699264384338176
0.69908920960876
0.699926520162588
0.689435135303199
0.701379880102666
0.693691876824468
0.69793571593079
0.683626484899525
0.695183129768578
0.693320751922491
0.695426240415443
0.69420607485431
0.695773923926728
0.69732289365116
0.711525834967928
0.705020306462215
0.723224851256915
0.718671144252078
0.731829106786843
0.723424471043325
0.750187790162612
0.769007868330501
0.796438704467477
0.796022431509677
0.814253484191325
0.835143470949655
0.846173645834174
0.848868696186784
0.869030830930577
0.854041671429937
0.867791555155459
0.851020175749545
0.850276105073484
0.843532155078941
0.827316149586347
0.816508507408636
0.806477651100337
0.776268622088219
0.787631610448569
0.79058371014991
0.785563906581875
0.771694283579292
0.780825498319485
0.76952813987408
0.780961583683888
0.765067324324719
0.798242997237738
0.772948717566691
0.788173114488935
0.781918662443636
0.772327632184439
0.75694796206098
0.753961998362918
0.751629428289111
0.761487320974399
0.752811178793341
0.773929177979035
0.742318277517538
0.747245854566071
0.74600183723446
0.75153146100082
0.737427583679379
0.738028197972321
0.723266267190011
0.729938091575137
0.699207979447127
0.723228653278547
0.704802086563214
0.69632414347199
0.717980535708984
0.725469746250025
0.721671702855951
0.713162635098111
0.698747932660988
0.705467674170401
0.683099830993438
0.70170389324316
0.706254876297185
0.698434977157037
0.686950006594193
0.687231407883106
0.681846906805165
0.691409662147721
0.68197902682663
0.682777610763399
0.669098941717658
0.679032406424241
0.664555817947416
0.672076371762958
0.656943089696162
0.662643436350423
0.643951133752246
0.657202066494529
0.661116253578321
0.658604257957539
0.636850060695036
0.66164657810821
0.641673121720679
0.631999123028012
0.657236410772865
0.653133889570678
0.656365177611151
0.651671681934441
0.648648761365145
0.649035398488512
0.652640359739413
0.692181595568648
0.671721365644886
0.668155901772556
0.65198408095774
0.666989341599459
0.6460309772641
0.662498479924779
0.677951890659179
0.693979948884636
0.676335814577337
0.679187925843319
0.660925614231053
0.659426891841834
0.686585062737813
0.6853599602382
0.670469452970699
0.721632917109649
0.70729065422592
0.722394502524437
0.734830411916991
0.739236829648718
0.747626211577009
0.772289336337116
0.743776356214077
0.742749825935117
0.769859951351772
0.810909203805999
0.799853152105899
0.861470947152378
0.846475195072551
0.866432672750963
0.883174375046141
0.959383319169831
0.867010755624488
0.923792334350495
0.957054678168812
0.912079171275305
0.956789224241266
1.02549443221944
0.949779818728238
1.03790608508357
1.15006321829631
1.07666831757084
0.969865593393441
1.04847166185169
0.967075883852543
1.07483763660951
1.01743434771954
0.97973163406957
0.998971453543461
1.07501870912714
1.04759471352241
1.10150945441106
1.03828719170779
1.00313017450505
0.976268217721595
1.02259727428841
0.940907027305414
1.02619639055201
1.02205535517158
1.0481644172906
0.957443692342409
1.01672634986557
0.945890434425843
0.990244297784092
0.97317040771947
1.08460740460151
0.971234372198375
0.933199905598861
0.967183739432071
0.99212931980014
0.919408245172814
0.999096324787221
0.873376030045499
0.976336287542684
0.906964570516357
0.93257180828415
0.979786179594808
0.967964222756805
0.906732516786202
1.06048431205372
0.931631864318257
1.01233412322074
0.975169083732886
1.03177268825406
1.0452248824074
0.981213495951949
0.972009935944821
0.984242562294939
0.875012564071154
1.03995358492574
0.998592465820537
0.972532458648527
0.904629402029861
1.05276534377041
0.974646201801244
0.929935959311745
0.821818066492737
1.01101699958697
0.99786078350293
1.11349789963084
0.959639274226136
1.11178576222311
0.973641589592377
0.928890542105311
0.976257819233761
1.05277693227476
0.996690707406792
1.30151308903132
0.997414011044235
1.02903199025055
1.09778802148382
1.32783967537432
0.998471612663605
1.19185236944466
1.06625345061446
1.21160975583479
1.25760340906638
1.49544386096053
1.06809622805254
1.18566571123663
1.17495231349302
1.85936784012059
1.44533323174385
1.51065499962958
1.22464100261881
1.23244019869569
1.16365920655763
1.17409184192554
1.16394707145731
1.21450424162555
1.09938536614047
2.09524020235635
1.18828036373458
1.06307128002922
1.07524433200855
5
1.55177963401335
1.49546081793777
1.25896312670629
1.38826784798749
1.29857111667825
1.47490084788677
1.02405125700984
1.20498283956543
1.08774246949271
1.1192466362744
1.28890356822238
1.0637021486571
0.948293627837182
5
1.11283352439707
1.21852568058155
1.35807567153402
0.999394900134746
1.14035799019136
5
0.938350351374958
1.10791926963744
1.77698632070889
1.20555582784021
1.32443046819009
2.03264811204436
1.16573053757028
5
1.14049446044211
1.43997718903744
5
5
1.17332168395349
1.51047802267187
0.711304693347326
1.66237952195673
5
1.42684471434405
1.09872147688179
0.997027112122596
1.43152562724491
5
1.03451570915454
0.77843436205289
0.699406341120197
5
0.952938879599894
