3596
4000.36533379555
650.420452594757
1
2
2
0.0571301395294715
0.0393677258066677
0.0501782211441701
0.0330092634364336
0.0523555197541627
0.0304153015290569
0.0483554621618006
0.0413150885166857
0.0521265983598133
0.0358713382128559
0.054187816341103
0.037845879644761
0.0551692329398003
0.0332686450189294
0.0475988315365195
0.0361010212264464
0.0535066519659085
0.0404504678533086
0.046775078954524
0.0390284198838458
0.0539954684875017
0.0315593620576417
0.0577078387664409
0.0330984326900496
0.0440839023002379
0.0384427561595757
0.0509579649547063
0.0393913639035002
0.0533183049863933
0.0419823280917785
0.0518307905248627
0.0349196421919913
0.0439677686981695
0.0401629105551597
0.0460271903243816
0.0342863831519345
0.0467623510962569
0.0385507037515851
0.0573513793488322
0.0338726150021966
0.0550413738635291
0.0441939224562041
0.0573296061210499
0.037256991640528
0.0426954057818233
0.0373836443601844
0.0498117774793105
0.0387290810736096
0.0488263118172172
0.0364242999243271
0.0547654081632471
0.034144687894829
0.0454700076595896
0.0401457203068172
0.0421651678306604
0.0322121098985792
0.0410468086138475
0.0255640053581062
0.0449756071201072
0.0475275246360703
0.0484120931663356
0.0339297250574571
0.0436571020941463
0.0391011554747389
0.0441776943387203
0.0376515508478626
0.0439195091614897
0.0425722955350029
0.0402203545084124
0.0432655034218186
0.0440697124543887
0.0278340524609595
0.0481246472831138
0.0296538559960941
0.0482130257581308
0.0376585513184888
0.0521948804521358
0.0332344003293675
0.0430626974749444
0.0278165983238236
0.0496606054898193
0.0268861335648159
0.0418303165881066
0.0382413030461682
0.0383614406049348
0.0306305827890083
0.0469483348604445
0.0217814536978985
0.0586386760326856
0.0265958092996243
0.0411083098417281
0.0316668065809069
0.0437936622574574
0.0341967744545287
0.0438767396771848
0.0322118863211402
0.0387798486156965
0.0195693915283689
0.0445607764648137
0.023280911166105
0.0521106907691946
0.0211968341609442
0.0760180998144283
0.0196275981199993
0.0461168681785767
0.039194202714636
0.0207771744046847
0.0521150348563936
0.0473936326447481
0.0345705492045825
0.0401145784172996
0.0292604903889663
0.0306626256857763
0.0303981941212441
0.0504892931449285
0.0393622502886428
0.0497781725953487
0.022074897718445
0.03763363807833
0.030914265234798
0.0476577501852482
0.018210517361694
0.0668963092613609
0.0173588733750801
0.0473788040602699
0.0310885129818699
0.0428415253675779
0.0207417503987351
0.0564068517044584
0.0224544899561183
0.0444232915492035
0.0174533260765342
0.0495715265270921
0.00458978725339224
0.06716787803387
0.0260894971630454
0.0435816536459126
0.0305771267107989
0.0358142730011163
0.0350470637052359
0.0348616115018448
0.0240782988511622
0.0422642821880189
0.0280648969036702
0.0627600027098179
0.0225683789929063
0.0417904427757114
0.0388755991318723
0.0490155092842483
0.0182980604623164
0.0397384271576588
0.0241997310634077
0.0359287723012356
0.0304679408486011
0.0503337089603164
-0.00988081198777965
0.0920171294826813
-0.00317475448923075
0.0719004929089465
0.0173617003351955
0.0465099074722141
0.0221383151323417
0.0350938290481622
0.0304193914629954
0.0343771808149647
0.0330849142891164
0.0291755888376238
0.0403694422845135
0.0448408358238276
0.0374258659941815
0.0459249895595892
0.0285435331257979
0.0362080979125847
0.0219334970838966
0.0454142127777629
0.00424994637639021
0.0637221125239016
0.0189372874014579
0.0487015330526542
0.0237288944852025
0.0506439945453206
0.0252287758238574
0.0371157713144667
0.0199101003369383
0.0401809057453685
0.0135711359288057
0.0460788073846532
0.0156801991721988
0.0505516524105315
0.0294215730899429
0.0568578379685878
0.0136190118517417
0.0569500083219795
0.0235454103500593
0.0452672935427372
0.0227851863825554
0.0390528526355794
0.0364839284557035
0.0314846133464437
0.0267106925913262
0.0361873547849539
0.0210399828617698
0.0426299994816195
0.0209148188881729
0.0420370472248941
0.010937402484554
0.0382692230674685
0.027781106437084
0.0459148858778333
0.0302053957328867
0.0456098631077545
0.0324179085761726
0.0431628343280116
0.0434561079145177
0.0334776806793223
0.0339041640822423
0.0295704851055494
0.0408626133245173
0.0409647237639516
0.0258314981877763
0.0424509187244669
0.0287667040844503
0.046014648701876
0.0318783917339534
0.0404534923048178
0.0254284777449085
0.0296076020368873
0.0258596276946291
0.0404507903123787
0.0283122954293849
0.0363565288152026
0.0289389005503164
0.0424709982054172
0.0292187852877429
0.0472795724901734
0.0300671511532264
0.0547489307034222
0.0249988150078725
0.0425070592994647
0.0288547381313208
0.0413703682281779
0.0229050705217737
0.0420746863241021
0.0264602741506111
0.0421168585456928
0.0295587873636446
0.0466433578882423
0.0316552217463939
0.0352866600824958
0.046125795105556
0.0361580868576705
0.0519363310266268
0.0258627755707471
0.0369754996131791
0.0310973996865247
0.0488194138235416
0.0346090470758846
0.0310585606279264
0.0458818489007144
0.0483486620100777
0.0332766041009145
0.0374819800797414
0.036103537510488
0.041520744934778
0.0430579890763989
0.0416908248593444
0.0676124161710454
0.0202134326035878
0.0540878145463258
0.039421145345429
0.0324995396756374
0.0488382514755877
0.0371173431129193
0.0211884488009177
0.0485768167943753
0.0369896368966027
0.0473601792895625
0.03278466252001
0.0484398204533163
0.0200188694993046
0.0565603930486203
0.0409166780335377
0.086457074584283
0.0398781589938908
0.0405969306069014
0.0515313087609016
0.0354614147787235
0.0485669997458995
0.0343280200598457
0.0447071616133066
0.0430245259865644
0.0510230232890056
0.037329259645347
0.0545494834915859
0.0364160692962281
0.0535124491281529
0.0463071545723853
0.0459291184860816
0.0404789920272864
0.042929696447364
0.0522062751953314
0.0508333997895533
0.0440531998524178
0.0428503779353565
0.0513765040798937
0.0408160684448836
0.0600231791984109
0.0433563416746863
0.0547466994731054
0.0542600157369038
0.0494375337888691
0.0488638248295514
0.05181441164017
0.0463333748853585
0.046891842376412
0.0436538316889546
0.0516415756217855
0.0522152691855524
0.0610158023046854
0.0429139557241926
0.0583979465887279
0.0479385847558996
0.0639539958662917
0.0505087763067692
0.0559127894223866
0.0544122603280568
0.0593474460045092
0.0474969762681416
0.0544761850925578
0.0674012222544543
0.0611308970426635
0.0564956049333764
0.0809730065750826
0.0463132585671243
0.0804183205259077
0.0531600646180122
0.0697968496409984
0.0580900939015165
0.0676603653853277
0.0602315983646986
0.0623685022033391
0.0651906011700075
0.0753293576022256
0.0710699544234945
0.0780001813850183
0.0680418627816601
0.0889687768963273
0.0723198710748798
0.0750591967409635
0.0750661210978495
0.0757364393243408
0.0932325718803862
0.0608444699738002
0.0975624908146635
0.0706655134915929
0.0772422937544774
0.0914827018592298
0.0804073901197822
0.0927095350933044
0.0858927641628338
0.0945632531168178
0.0848816810928399
0.101814826971992
0.0867589933931212
0.102920054079368
0.0847396174309125
0.109817208124729
0.102190706240981
0.108022980699788
0.108270616868376
0.116517086070733
0.0993002318490295
0.12164416079783
0.107263950799889
0.161819682688593
0.0908020936530785
0.147120056182362
0.127570076383769
0.135917481395176
0.120872925558368
0.122346745534625
0.129866196016997
0.13819993046309
0.129109662160399
0.138862186195823
0.139817604757671
0.144032031092453
0.146927634604242
0.14667230766739
0.144239786230659
0.153866131304142
0.165376758865927
0.168673373889156
0.166267914078143
0.154634020641878
0.17351871231078
0.156820101066769
0.210543371601109
0.174532295475035
0.174260550877016
0.183245049278599
0.184321650417569
0.170844592293309
0.178323275176827
0.193062699185596
0.197461594257799
0.217293083996661
0.198678357771819
0.215253866535641
0.199769111165518
0.200292704589228
0.217111737024359
0.212261631136511
0.226620087415357
0.234854061572791
0.221786342623027
0.216146074597004
0.238614885464161
0.219159973617875
0.241560978587095
0.234640428890253
0.231866944067075
0.25439484128971
0.235047437577203
0.246654301584403
0.247466153060292
0.262938282873935
0.258622674226024
0.265103492922851
0.260373492267901
0.276774719692126
0.2743302622684
0.284918903978589
0.287057771437911
0.297509597408543
0.296708349514625
0.301528391647146
0.303452794373983
0.293562344321109
0.32350323192676
0.325930636133953
0.337475066703431
0.32871107729769
0.322277888567563
0.314967471533927
0.309728720770066
0.334107574639999
0.32794787031665
0.338028099995551
0.341641816407834
0.354734632821376
0.350310049023539
0.372309385791245
0.363313247935044
0.373416132875067
0.376819798101257
0.357482017431164
0.359062968796559
0.387939491277401
0.391303316737744
0.380934528551216
0.416187478818863
0.413744849024752
0.430140876907366
0.4232580872191
0.396651831956866
0.40578378291815
0.409209845800359
0.423020526881776
0.416076725992599
0.43854029367454
0.436102710333398
0.457724608800026
0.446107562621164
0.456954195017682
0.46463465469334
0.475702699471671
0.466289949915278
0.467320390377587
0.488748584826019
0.494585897558489
0.496729496605006
0.50889794377339
0.480239521671835
0.512620252234975
0.531618519937418
0.515036864111988
0.529826008135939
0.538586196965866
0.509740393651937
0.525168932055389
0.557600176148573
0.532874073533549
0.546017580087038
0.533067709744335
0.553889878995748
0.548098829056882
0.593204529666849
0.604043471955419
0.598420169431305
0.59268562929053
0.613852224115061
0.606938006861957
0.624512901369879
0.602129212791789
0.612514377043944
0.607732639019663
0.604857324172486
0.609298280776228
0.634977510614219
0.646526814076171
0.680076728353097
0.664364118280857
0.660564902900782
0.665902978314756
0.666740709878594
0.659064356098312
0.695244099246214
0.705480651582934
0.678604275780818
0.657720068924671
0.691471747113465
0.695828490608237
0.724743901360616
0.736788459581569
0.754688434258587
0.692449839249273
0.721352051706138
0.716409583741821
0.744280165194727
0.715193986128128
0.744081620822067
0.746438305104243
0.809710141425732
0.794910225622319
0.832309760249797
0.777966690050681
0.781797486496275
0.761777116292961
0.811607051518611
0.824930750867784
0.838931435649765
0.832248254369199
0.866563808138727
0.778870188856076
0.85580339506577
0.832546397112548
0.837708111045018
0.79231832350054
0.867428885011415
0.866120142830093
0.864317328323745
0.856890029949702
0.933668580224575
0.948303457909878
0.976367392920574
0.870486885123729
0.935151720415331
0.888479696084454
0.921103263289037
0.91206681585757
0.948934658179255
0.843803185522553
0.977428360522122
0.917421052725539
0.919362269829327
0.933169995050912
0.899924609331652
0.899898502604456
0.989411185254242
0.95712513246483
1.0154379029494
1.0153007215591
1.01790654024365
0.973539937805835
1.03561238376868
1.04911187095543
0.990198268579888
0.979687784862924
1.09049430843679
0.99910505107222
1.07128282263264
1.08309993614792
1.10036229472281
1.03108035837844
1.07132268899751
1.03074595652789
1.09336970145792
1.04873763142456
1.09461076997235
1.03298176587
1.13923801021723
1.06872643782533
1.15924066367819
1.11625688440413
1.14809930769075
1.01634886326743
1.09344441166154
1.08150761307204
1.17610384125494
1.07280473183428
1.13014474588795
1.09091739630178
1.23112770105531
1.09799916905204
1.08086958282549
1.08850921090254
1.17795675877339
1.14422265581385
1.24867104384162
1.13994678799364
1.25425732461124
1.23922971117726
1.25579371499772
1.12077048427957
1.18912740613677
1.21004995001473
1.29917955150744
1.2635522154345
1.38687113575766
1.19600158669469
1.26584048163074
1.22508631055917
1.38892489663408
1.1962376715693
1.2536793671815
1.22644828105261
1.36247354087248
1.15189005602813
1.21722756250868
1.24602837641855
1.43406210052883
1.26367420135371
1.3411206613744
1.2203747224307
1.34857348190927
1.2629548893333
1.40496412308923
1.23915978616976
1.38979903104623
1.16448132176714
1.21436893019919
1.213004933828
1.38267910032134
1.23573465575273
1.35349851013768
1.27468146016742
1.31478257343689
1.30530170877509
1.43495331556381
1.27245093280274
1.44506825220232
1.34436843845483
1.54886726024916
1.34135430865463
1.34946090285757
1.30591232809068
1.44489481509505
1.41681299001779
1.51152902410091
1.33170910769869
1.36220432930116
1.39173837954669
1.46365970279318
1.32621388637708
1.40055961429856
1.37286742739979
1.76366130932354
1.52290844438793
1.38217179105148
1.30918148401256
1.40914238375813
1.32754603160602
1.41621801942564
1.41510335327515
1.4593320184601
1.35304606526681
1.49927956239968
1.31777252455678
1.42024154959058
1.4617581657242
1.75423305073971
1.36166608892362
1.37261706533507
1.36126275284308
1.69614721493205
1.38089125297714
1.51461262439147
1.43638325239261
1.52779116013995
1.3554065032346
1.4594575579682
1.44749655443778
1.66514167629156
1.39665699371285
1.4213072165448
1.44937374888241
1.52919786300016
1.51877417065603
1.56068495363822
1.41602523626948
1.60869005635464
1.61217521045231
1.70145333690374
1.36179029308443
1.52025061273778
1.44083198393883
1.49810259099126
1.39203764417566
1.69011014534005
1.56729523239925
1.68682263405743
1.36591010055917
1.46801978137075
1.46267710516393
1.50951866683567
1.37787948145399
1.6278660498964
1.43289232134574
1.78306984216346
1.35177598889823
1.53785375060463
1.38897248252687
1.6651221873816
1.42018442732588
1.6020042070567
1.6879827082229
1.55992194142259
1.52192633555996
1.65127883841812
1.41612387378276
1.93480267270376
1.46886506152388
1.58894345740354
1.37712053664236
1.47817444757826
1.49479684190872
1.52201506929917
1.44960930273847
1.67961940626593
1.5903763797004
1.82106619000494
1.37545644318848
1.70556745969066
1.37049113211157
1.50455704225914
1.57442928366795
1.62731172060136
1.4676687850176
1.66916359897657
1.43298973137425
1.55749615948374
1.53034224691664
1.72356341073862
1.59272976158566
1.4827828038693
1.44042621232444
1.51997603608852
1.41452035920872
1.44211809978145
1.47017211001325
1.69403106131073
1.48507232174001
1.70558848284853
1.56326310698552
1.48171317524212
1.40989842483975
1.78325188694
1.48553077457185
1.49765599825031
1.45856139389604
1.61534081801479
1.52633006833754
1.51239802349391
1.38652137524436
1.6477617069783
1.31965191373797
1.81355332624034
1.46916728298264
1.49685504091878
1.47633992909524
1.55876052889306
1.48874222736872
1.59805959986226
1.46374450703353
1.73929677519917
1.51327556040859
1.50170520242612
1.46211776541847
1.40180219571883
1.45779881927362
1.45456881615559
1.3615606441745
1.59904593809486
1.43560975764523
1.5471034687688
1.5299634140353
1.53165227477118
1.44246254203859
1.45145807187018
1.43077509338362
1.55205969788716
1.44188500034882
1.32612408957739
1.47788486038231
1.53598212673034
1.43179706279281
1.46135408422758
1.39732233396285
1.68615241574647
1.4702798466095
1.51664125529303
1.44812241951398
1.49029531475691
1.32383166871107
1.46229926779067
1.38146496738591
1.50747699129554
1.50727715211211
1.47202289006335
1.3057731169432
1.47712872216218
1.30707405818497
1.55225013468692
1.31672788318787
1.46398738252712
1.3986064562208
1.44328820683449
1.35636690412362
1.54989247735716
1.3633422508571
1.37616774943646
1.33136248146704
1.38007185361581
1.35865089435764
1.44885055428555
1.36584817652668
1.30314319936749
1.31958787082352
1.34796319575738
1.3541126385749
1.37381586615866
1.37146747298002
1.36255830077532
1.37686233169745
1.44536591862423
1.36276445093143
1.45922534333544
1.47320687897177
1.27727292905854
1.33032023057066
1.34757462563248
1.26180141215782
1.33724555732085
1.29761458949548
1.27838708506939
1.21509536603025
1.29231179999004
1.28995221304391
1.31877933341719
1.22013543602071
1.35134415016218
1.27234220345096
1.32606704492527
1.28363792404634
1.24307086085578
1.30117732959296
1.27975937050212
1.20140465695015
1.27213218783635
1.2068808031142
1.32337840273269
1.15174001010333
1.26809816818455
1.15683194647477
1.22990102819015
1.19579519848114
1.26910748521785
1.27346799148723
1.24168720774144
1.1471652741811
1.19154496286783
1.16732483689916
1.18792940644872
1.12111615272914
1.19861915413207
1.10693927073066
1.16830747875084
1.15008416589261
1.15558067198025
1.10172454235024
1.15438143245948
1.1128901636042
1.1706087440603
1.07547016691378
1.10211440981218
1.0769927296347
1.09934238017403
1.06830079335403
1.11394818141597
0.983576840227277
1.11659139534121
1.06125785479399
1.04921983805945
1.06489326175808
1.11514266388939
1.02385777983647
1.04637318979786
0.990430005283537
1.03014213116601
1.02612326960713
1.03164237705405
1.01515568303222
1.05716632419015
1.00329043009602
0.981753704074355
0.989799952309346
1.01177398027832
0.99825839448821
0.991288365770321
0.980653715356809
0.987529977064819
0.950769543904177
0.97732652702216
0.992391732257797
0.971632265652782
0.951417085597525
0.969574026557451
0.95319910140428
0.926283474184893
0.901651946963945
0.963066856403816
0.9012979593426
0.919223566136351
0.882278652282406
0.943355300985188
0.88375182378841
0.877243965507486
0.900359087406075
0.88472360978811
0.85656465181853
0.904111764861583
0.883352113613341
0.871646924428096
0.850940260705345
0.882472158951929
0.839270465982052
0.869697774646023
0.828964004889012
0.863241692661202
0.817829653400096
0.855522150307477
0.813691884229266
0.824323774877921
0.813497427689172
0.820046343257044
0.806742325530355
0.807477242692296
0.805039925944787
0.806353840163575
0.797953755673243
0.808566452819754
0.760819647761281
0.805650515699766
0.784214987274963
0.777051287368745
0.778072178134436
0.767394747624341
0.756044025490841
0.786768199667665
0.734591394094526
0.779852137452485
0.752351225194305
0.769954813203792
0.732910837564658
0.736825698663096
0.715846317204002
0.757322714974182
0.71618401763913
0.74455241453793
0.717164356951401
0.707975909514279
0.703006112499818
0.711479300570677
0.706736985314763
0.703008460259035
0.709254167897227
0.694209380174245
0.682596919963305
0.690961548571992
0.694035180556749
0.697939255028997
0.672616999193732
0.691339524158326
0.665954731842207
0.6813897952386
0.653321016590277
0.667403976713234
0.644188524982516
0.664633471943656
0.644506473381472
0.654715450924678
0.624230484775563
0.654326059584159
0.617933430864056
0.636570869799334
0.630045424321968
0.641449727303676
0.617909502241581
0.62337878499511
0.613114952742695
0.616720697870902
0.620538530122858
0.613330879240026
0.599609176855881
0.602994635185297
0.592559360848676
0.594314213433801
0.589864520320227
0.594440328395831
0.585353241747499
0.5866905621365
0.584498557915648
0.588873329481417
0.574052970107409
0.58440429411925
0.556335668295278
0.582543893698744
0.556474189910757
0.56308415760219
0.562052412155083
0.56578053809158
0.557856876094234
0.555537358330383
0.545505085619215
0.55486009384674
0.533500431829371
0.549721557537223
0.530460055096342
0.548050497582448
0.532711769255672
0.530335763867214
0.524619665399927
0.529743378056335
0.505199204831562
0.524163245025982
0.515535315487467
0.513619460779531
0.504087377623415
0.517922167751462
0.498108091285521
0.515324875453965
0.504175595333366
0.506747455017686
0.482088737437082
0.516348568102514
0.487436330378788
0.490099169462641
0.487144420338979
0.493455049269729
0.478615641700212
0.493968039131967
0.488423250659994
0.49357729636093
0.477470689017114
0.47847636982984
0.474038118479002
0.484888590225785
0.46919210621355
0.482846857029813
0.471142907615558
0.48493411209221
0.465198240031121
0.472515454403289
0.462491781877639
0.475993233325205
0.465957065935753
0.47424739510782
0.460783051613003
0.473818455714522
0.479204676288366
0.4818788808751
0.466251019118974
0.470374835042953
0.469802713875815
0.470191362009926
0.462039695662161
0.474774103910742
0.475643317163245
0.480535950672377
0.47562360269409
0.493503002837365
0.467833128284896
0.483241881665784
0.483142542101687
0.490414425399009
0.475360230348991
0.499923948066753
0.491623110806203
0.49050428892545
0.497617454789806
0.499576503733621
0.491184127725444
0.503771096959818
0.488014023582208
0.517653231807638
0.499924633325518
0.519001005052326
0.504538707678009
0.52567408891127
0.512326350495348
0.518962732321454
0.519425712737395
0.533814218976544
0.52518689569667
0.555583560209424
0.528557532255778
0.546610494183441
0.526157400194488
0.550465862653163
0.539058294302474
0.560694368951211
0.533728895495646
0.563319475646942
0.549500883116105
0.555227668389845
0.559827350261287
0.565456497186787
0.56981440184973
0.576492323317182
0.57490093635236
0.60046926595508
0.579880778143273
0.602943249993334
0.595907513298524
0.618440685426307
0.605535837347349
0.611584620232088
0.62848021618349
0.636737818630189
0.623559872606382
0.631157180245264
0.628087738682746
0.641214771855127
0.635206676289298
0.642851672504988
0.636860517665726
0.650416923492871
0.641461977062774
0.658404047817664
0.640978664533684
0.661039412766984
0.636061870630098
0.65215468651375
0.636094633076916
0.660231997248813
0.640737925146412
0.644239146250853
0.619534827303875
0.66411151685684
0.639830149164694
0.663927373719243
0.627812776078926
0.649912634103396
0.629713567016474
0.639535255050218
0.639067446589178
0.641221393168864
0.627661082168957
0.640282853989411
0.628296752673242
0.640364081591011
0.635190132071833
0.638744592505339
0.616272919184093
0.637974404778732
0.616738095010795
0.634634535196603
0.629980488582017
0.6416254680388
0.616223769881678
0.639151085342389
0.628036876932787
0.644958976004989
0.617029937025685
0.634245822398641
0.622785887479017
0.636602246036615
0.63004571907864
0.637399156173003
0.63303373876314
0.627057739349871
0.618837366177064
0.64241976082866
0.621284065724973
0.628140812211931
0.618019999600325
0.629244274541986
0.617084073485225
0.619358944306227
0.61914229938104
0.622866550313368
0.618918850974176
0.627090166203383
0.612821125899369
0.619018055889636
0.609908541262598
0.618176659692836
0.603923199445684
0.608432762860914
0.593322906573001
0.598682039174777
0.586312335594299
0.592246103380332
0.582590348638609
0.593935842952155
0.580179208532047
0.586361502201873
0.570682221742237
0.56491613187227
0.555032476420584
0.563142973897326
0.541365788101841
0.561500580640015
0.541257736290294
0.551279840872801
0.536744018431857
0.535858075634387
0.52416685512989
0.523490261619307
0.522299243411642
0.530074861217722
0.510632888314108
0.517117882860471
0.504496667085284
0.512205601389489
0.501006016948018
0.501498278274031
0.494022481240587
0.490211734823513
0.483695673397364
0.489452810554947
0.48039309544979
0.473322220953457
0.466310664327574
0.471924064149616
0.465483632424057
0.469673391839863
0.456066765610878
0.471620041760219
0.462445418108781
0.47089198664688
0.457639433638392
0.450423440637132
0.443422878639492
0.450357990383779
0.437900266246536
0.447381307104937
0.436904061234641
0.436929046056555
0.437379700336
0.440727568646971
0.433671353917284
0.435557198778099
0.414029456604918
0.422503156062283
0.417760913453898
0.426827914267619
0.423368997563628
0.424422903082565
0.407327752198545
0.418875932533528
0.412679985467697
0.414366462849388
0.406926615880807
0.410560726082345
0.40440507529404
0.413220463513873
0.403045407734919
0.403999343765366
0.397395818533166
0.405643718598203
0.398942800093839
0.401522459992116
0.392212201628448
0.400414978335136
0.393293546043003
0.396620822327158
0.387327647178032
0.395112834692912
0.383044676327138
0.387505022892467
0.388743486394184
0.383517025692017
0.374286779760493
0.390190844018388
0.387156123651697
0.384788044256963
0.378823115347116
0.376271468846252
0.368789977084781
0.377555976693905
0.371547398727791
0.379514916186783
0.370390836294529
0.371311959195276
0.3640109223872
0.364009516171354
0.365473896471333
0.372593382517343
0.366823538992425
0.368004717849175
0.360069695517033
0.365906912283393
0.358824051273892
0.357481230764708
0.354166154185072
0.360976729583937
0.354496900397965
0.354183572118417
0.354460670442466
0.355200638885309
0.354646497969615
0.359793887789015
0.352943375121152
0.35613629117865
0.348191164647087
0.350662467388243
0.348783217900909
0.351316296177643
0.344136664068976
0.35047060344872
0.348464806036464
0.350224933083096
0.340703478827837
0.340976724110326
0.341521562863124
0.349819435014826
0.342451343841648
0.349142791791376
0.341742562843288
0.33944122112228
0.337539210006326
0.339697339142087
0.334657078029308
0.336907534632632
0.334101730389257
0.337344330016408
0.333846059671914
0.339613541051543
0.337766509963159
0.333003812252924
0.333340384045868
0.336880969478363
0.332443300600708
0.3334610857561
0.329775946620369
0.336952905686251
0.328423921947622
0.328617535853708
0.323795322856071
0.32990845294126
0.32977599220273
0.334723473552
0.324877468760212
0.325406433182105
0.327970179023932
0.329921597651238
0.323384018071682
0.327804080441154
0.320702517789509
0.324497843473593
0.321447697276199
0.322762093294734
0.319700656643773
0.322900474900274
0.320692981154675
0.321979081315589
0.320367477581013
0.323922571826936
0.317361667964946
0.321081717731535
0.312624189663868
0.314133010340675
0.316181858934101
0.318546476233293
0.310068520487285
0.318756223297748
0.31379684753401
0.313701230759145
0.309800406895431
0.312983172830017
0.311897544845999
0.308416019419479
0.305670282535198
0.309907545651662
0.311299623537923
0.312033193943429
0.309081584630144
0.306892950224686
0.30344054108192
0.306536164074001
0.299162203314595
0.30212978580808
0.30368437178042
0.304655783370962
0.305692186506277
0.30738895160671
0.297364812365527
0.300730104419039
0.301723291607054
0.301217447159292
0.297069017506907
0.29409400227296
0.298634674912085
0.299677568413565
0.290566685134871
0.294143669388036
0.292823541947731
0.300504603769766
0.288277525174258
0.292634669318917
0.293915256392377
0.291548581898804
0.288089058936788
0.290469865772349
0.286644652099645
0.287888994892022
0.284856436721959
0.289715718286137
0.278442373242176
0.282769202820789
0.286993763192425
0.283620924441734
0.278879608086064
0.279046594134559
0.273228942336246
0.276272116099663
0.274864735904182
0.277172379878456
0.274858837243081
0.278367906388089
0.273243290325425
0.274330127294657
0.268403896416087
0.272289728542609
0.270944939137754
0.272215138863324
0.271019087973533
0.272176424839592
0.266119249640778
0.262496633850756
0.262977582909918
0.264453727309981
0.262370999301433
0.26729402160224
0.258095482045895
0.260993048554042
0.257744987206281
0.258591418457958
0.256439688437452
0.253308834551476
0.25458874023449
0.259291121210828
0.252607359245939
0.250157750326587
0.249597985413178
0.255203090432912
0.25269001530369
0.24853083720718
0.245676447974899
0.248678918947628
0.24579027699817
0.247979825492056
0.245466745150961
0.245787811964285
0.242546590288243
0.245513262164983
0.24370537855128
0.241059296323379
0.241905417412277
0.238159392352633
0.237052797557414
0.241967113430514
0.236662485386569
0.238268220681852
0.238549142704437
0.234513751175518
0.233250014636335
0.234879069709476
0.230096595570932
0.233405950236557
0.23005864957474
0.233250039972404
0.232859752354984
0.234992876882849
0.232356581845442
0.229414125857156
0.225529227447146
0.227115854446494
0.225941295814228
0.230020007205896
0.226866325581142
0.226705782692676
0.225339006975329
0.223711942621049
0.219931807721988
0.222748949699153
0.222183704113362
0.222913653716521
0.221891487358208
0.222753950308438
0.216122732948575
0.214693367117035
0.215850273443613
0.219865628837582
0.216072363591482
0.215037412492071
0.217300372937121
0.214601415843694
0.211852799593555
0.215444630256598
0.209584588018237
0.214400974543765
0.216181572054658
0.214500493750866
0.210796611979693
0.210474457247602
0.207688141830074
0.213599157350936
0.216976487643692
0.212811770330501
0.208835606699755
0.207665879345012
0.208968887965826
0.210775379586048
0.208389567245636
0.208972888815524
0.206761010112066
0.204551485199619
0.205093224235338
0.20548248716316
0.206539582706866
0.207238191978762
0.205798505026044
0.203981830392772
0.201926950030825
0.201404741451594
0.201008536326669
0.205457612181353
0.206287169805525
0.202738467795847
0.200429944781405
0.202201972953731
0.202712467652729
0.203461657142861
0.200242416425789
0.198062556247953
0.199999460858367
0.199430588930962
0.199238829565815
0.19984458475321
0.197639619975976
0.193283623697789
0.194323738925318
0.191958693686931
0.195257576158128
0.192609370703491
0.19165578300703
0.192363566546183
0.192394145291065
0.193461656622036
0.188221867479202
0.190435171415951
0.194942639287887
0.19496175855896
0.189219819053635
0.189637394587398
0.190382987811553
0.191203246191376
0.187518572483986
0.187738857249274
0.188501297997702
0.18935403245979
0.187964806497377
0.189556470100282
0.190299575130285
0.188436417598688
0.187088448775817
0.18656165069795
0.188845246739679
0.185947247451621
0.179748949473689
0.184106369488071
0.187233237280163
0.188671300551373
0.184657911534621
0.181390945764626
0.183477830626412
0.185160475845723
0.185595903295445
0.183646072835601
0.18210518998769
0.179510881603872
0.183481388452556
0.18216757987106
0.176966679460371
0.180539378028477
0.179783138917653
0.180667460561112
0.181168428020827
0.176452682576688
0.177576475792
0.176264986130674
0.178782901418609
0.177285862687891
0.182128832126038
0.176522997505309
0.177038073125586
0.175061072278245
0.178149025757236
0.175017063463174
0.173595129307322
0.17478567638631
0.17250253224114
0.16996171434796
0.170356660125474
0.172602388908971
0.174909971922928
0.174892703392104
0.167932981277407
0.167252242715793
0.167026282732144
0.169768769507666
0.168394187656886
0.168219480355563
0.16865647390747
0.163237456738466
0.168388905287426
0.162431392169001
0.164652582641578
0.161924838776226
0.162160807658066
0.157696465449962
0.16160257200396
0.162606194256025
0.160615873542892
0.160534101228955
0.158583021695626
0.157130254160544
0.159826958326512
0.159361654142804
0.160491708288275
0.156217756247598
0.157009494055952
0.157883657821028
0.152075753472557
0.153425640593353
0.157936960010026
0.156048523840501
0.152681275299135
0.151564499105972
0.153262355591344
0.152240464724072
0.152151768676405
0.150664477864955
0.153095841249532
0.146762966593825
0.149485028324833
0.145561595418246
0.146968543150523
0.148160725533843
0.14728158420434
0.146797819512119
0.145269871516579
0.142590122656574
0.145508955474908
0.146096732918188
0.143463270468325
0.139393409353466
0.142229308062956
0.144314988887555
0.142766671658716
0.138175547124882
0.141486907188076
0.137361751667852
0.139364139635649
0.138380300589443
0.140614778140612
0.134910102858494
0.135606653955092
0.133825714032129
0.140084953820389
0.134808632216084
0.1382064982189
0.132180726068738
0.134897005000336
0.133376819592192
0.134982534082144
0.129160853811386
0.132402421835257
0.131081074100682
0.131897122215371
0.127704546177341
0.130172834088862
0.126233219869153
0.128377048953766
0.1259542215656
0.126567610729662
0.127568913418765
0.127552284217791
0.126398735344183
0.131098950129604
0.126910348371487
0.127179667752877
0.125396025064021
0.123718570179702
0.122967886581076
0.125327565656643
0.123907924649068
0.12443879080096
0.123527129991244
0.127035127120436
0.125591415754123
0.12315381781135
0.121076275728356
0.120735935134396
0.11945839395519
0.122729741144039
0.119368830638423
0.122087648064466
0.120298236593607
0.123523538093657
0.120106463267258
0.119339997288243
0.119516696467902
0.123015921244743
0.115231745755071
0.118781869584335
0.115760540758632
0.120740823571393
0.11070212763366
0.116063581956587
0.112522339126858
0.119301449508292
0.111273008973638
0.115488395975772
0.110919293435539
0.120211909611606
0.115008953983939
0.117254597416435
0.11090091412547
0.116075802122916
0.104037498049015
0.115351494555008
0.108566719076377
0.115321662728806
0.105952599405811
0.118267699667071
0.102329626396627
0.110547813757987
0.100617419247777
0.111422929217591
0.103929225282056
0.110316014515078
0.106449030102424
0.109380143252758
0.101716415231151
0.116599080514233
0.0985969352294014
0.113293356380086
0.102002065413665
0.113274252394539
0.0993596151548107
0.114540726675593
0.0962804689352312
0.115200295240948
0.096231445213926
0.113358965241054
0.0905110667072162
0.110425248334063
0.090758843672581
0.114923846179808
0.0912648362180291
0.11443986713119
0.0974836556190586
0.120104700811866
0.0920170626261617
0.116462991909316
0.0897037046784618
0.110537679615724
0.0885193657979183
0.116161828269308
0.0963483075328069
0.10967071266483
0.0895629887005867
0.105097701023757
0.101890156873865
0.107114935665072
0.106232330586105
0.0946428118234746
0.109227587768187
0.0922575532466369
0.122268857717021
0.0788759903290137
0.131231375027721
0.0802484524841653
0.123412681086377
0.0772425051862023
0.124796671064727
0.0790333078366579
0.11506821263728
0.0892184677703765
0.111254047664901
0.0966861559881359
0.105024229107522
0.101868365821397
0.102095012957331
0.102364013503961
0.101160214443621
0.0978333239980463
0.103530760671627
0.0985200346893851
0.109068079190429
0.0975853405608212
0.104466760652531
0.0944199257985026
0.10377995232114
0.0966553101626167
0.101717306478519
0.100214889387592
0.101772668518324
0.0984111594498957
0.101475913226583
0.0984165183106444
0.1038584038071
0.0972236365541412
0.103216717263671
0.0971782420897547
0.10233479644647
0.096974245150017
0.0996278026792246
0.096398531396227
0.0997663395101284
0.100165794718826
0.103002878627998
0.0974574133723658
0.101917278358846
0.0994581707798074
0.101129743519807
0.0977733352339921
0.100509325306562
0.0976215647204378
0.103853389133891
0.0988506373827027
0.099671956188256
0.0978378320779061
0.101526794237727
0.0984410234414295
0.100537908645022
0.0997104242929993
0.101893962597729
0.0998697888307229
0.0988393487912525
0.0994769097862893
0.0985729237959888
0.0992572674782794
0.100797143970085
0.0984229453215244
0.102515008918286
0.100223183171852
0.102621892879064
0.0993530694759447
0.103027072534276
0.0960216306512628
0.103577565729073
0.0991499159235644
0.099529409649282
0.0991757774939493
0.100134211576127
0.0982197453900668
0.10096553114871
0.0990621036038651
0.100119427739348
0.0991545210104278
0.100942196961647
0.0981746779798368
0.100955366309416
0.10054612794639
0.102206610625882
0.0991260786226793
0.100872912939678
0.097793374674837
0.101729176339071
0.102485208830875
0.103518071201277
0.102478586219977
0.102790924645439
0.101743414562522
0.101208527327583
0.100848403100563
0.104332793329708
0.099888822711346
0.102051419937929
0.0990743170455386
0.102899291724903
0.100038699961504
0.100552945262496
0.101967898019361
0.104058566186568
0.10339902304401
0.101181263104009
0.103054313304757
0.10120954250417
0.103714078112693
0.102898815727166
0.103912370325178
0.104123484248811
0.101279811275637
0.103422265471064
0.10348148802613
0.102615660399573
0.104115448881044
0.105470988645587
0.103233830892415
0.105823898036425
0.106112643228053
0.105399709923927
0.105102556766464
0.102516744832051
0.10436727244301
0.10607290200907
0.105907186517142
0.105144217681266
0.105018737964719
0.106375535850226
0.103424406790847
0.105730002386375
0.105038517852672
0.105606464129396
0.105558448375465
0.106363346836734
0.106950955273864
0.107012280065214
0.106943401640655
0.107670972242444
0.106793796452646
0.108115994479134
0.108245527131818
0.10899587721806
0.106138307864172
0.108455589577814
0.107489775266653
0.109360303504892
0.10895919976774
0.108756837694905
0.106638931458124
0.107083676997787
0.107107963039742
0.109261916388232
0.110414007500638
0.110076902619481
0.111022812743584
0.10701405209879
0.109846242051748
0.109312990824126
0.112173836887234
0.109532053793905
0.108957377527174
0.11021650618844
0.112300437940602
0.11102702301976
0.111909675814809
0.111402272049092
0.109386523220989
0.111722264930713
0.112397582402171
0.112794260184671
0.112700092273952
0.111361040465334
0.111656948600674
0.11420378223683
0.112820202982695
0.109324968584609
0.112346936017008
0.114527950101102
0.112787911681051
0.111384973311274
0.112053795927886
0.113201059430648
0.11256180225207
0.115140200453748
0.109932221725702
0.110555490712872
0.110176482310819
0.110932146789702
0.111970433230827
0.110033599030958
0.111604106502612
0.112714934087039
0.108832123812707
0.110673855306384
0.109142966370197
0.109040332692594
0.109270916247716
0.110458554271836
0.111145357154755
0.108417386581632
0.109771568497651
0.108502713323606
0.107856397187148
0.11050391911822
0.108984369793448
0.107981580116236
0.110592609511224
0.107642811029648
0.10710637887227
0.10888722066591
0.107610058874653
0.108747337490678
0.105691853169935
0.107711228372145
0.107579822497838
0.109474290602967
0.109043513558064
0.106984428471353
0.109549197886729
0.1074353199164
0.10722847268768
0.107248498398911
0.10547879177026
0.10684799103325
0.107448042240712
0.107749488376706
0.104579683418995
0.106263894259715
0.105404479002392
0.107198932207133
0.106064063887402
0.103733531636187
0.10594283066619
0.104235220495288
0.106869777667053
0.104752023989171
0.10522817079699
0.104841489968054
0.105438317011926
0.104871794896657
0.103479148489032
0.104808234979037
0.102251835086811
0.102061403146465
0.104599114594532
0.102784139508455
0.104947280275923
0.106689261322616
0.10603666612307
0.102314096470415
0.101676224660393
0.102849934784832
0.102883153461331
0.102909463868684
0.104095323545704
0.103457563178575
0.103296694512822
0.102285536074296
0.105786408612397
0.103529449846983
0.104031698665596
0.103881580587098
0.10288981454019
0.100323132547997
0.101524503302901
0.100327991765613
0.10200077356844
0.102220731591272
0.108329785208327
0.101947356071679
0.104589597296119
0.10111243950019
0.0991110445191915
0.10446104165351
0.102802525998757
0.100092291922997
0.0997132793750059
0.0999890137255279
0.10134746178793
0.100381405827025
0.0986175287016827
0.102511720736857
0.0990943609826983
0.101128598690379
0.100534491278096
0.100852839243944
0.0997225546074504
0.0984786969052421
0.0987911474781752
0.0999740243872467
0.0990054482542015
0.0996087648771286
0.0964922166017591
0.100212716290004
0.101548955050294
0.0985827415893989
0.0981825779042047
0.09894276408178
0.0963430714813432
0.0966853309761158
0.0976005274673279
0.0969237497364947
0.0963225948264732
0.0951798185026125
0.0956651008538737
0.0953056368545486
0.0960055037073324
0.0938877710834476
0.0950590223207271
0.0961380594840655
0.094978505182968
0.0913640363969939
0.0916903263605636
0.0930866309989289
0.0914213846403273
0.0906369090564972
0.0924431215998507
0.0906945455575585
0.0902902561642853
0.0897062531897659
0.0956961004952581
0.089190956128009
0.093475218423049
0.0886993673396615
0.0903583256606162
0.0888399633566444
0.0890894440636589
0.0879108661239995
0.0901575529945186
0.0877815461212622
0.0893394270549652
0.0836857495021544
0.0880971417677459
0.0857633492582595
0.0866104416488825
0.0862469062479834
0.0885317802573183
0.0853646854677966
0.0849551816126349
0.0847123282081848
0.0855663154282958
0.079818323901077
0.0842131971276128
0.0841303199861426
0.0872103542966981
0.0821610264119276
0.084828351042233
0.0845174966011674
0.0825429935651206
0.0858421884360388
0.0837021095402112
0.0838113242280996
0.0804712461631736
0.0831864653096192
0.0840656639718268
0.0837442474175707
0.0810886723696435
0.0813206097357747
0.0829712128591855
0.0803549114403696
0.0799450434313161
0.0819539955177441
0.081829830116996
0.0825093556285539
0.0831243736152054
0.0797158394029709
0.0824745620521003
0.0821184863822361
0.0812821695323233
0.0799821113128361
0.0787777023556369
0.0807788834736639
0.0799568983918786
0.0828599201187879
0.080270527147133
0.0823591373160219
0.0781899441446753
0.077886673085167
0.0777723439294909
0.0803756798088146
0.0790773231197059
0.0781848340750146
0.0807837450247799
0.0785834140491742
0.0796580457199674
0.0821370958337952
0.0802789269243426
0.0795606887136707
0.0787404905762291
0.0779705821215476
0.0767565518179577
0.0778957810026698
0.0761536432193131
0.0783759669751603
0.0774138564970599
0.0798579658737738
0.0769408367984595
0.0779791551310706
0.0754113754958325
0.0793998758449717
0.08773174665251
0.0728015923639271
0.0811336729660727
0.0744626510819669
0.0796467225327244
0.074769744040813
0.0786978598158722
0.0759065117392193
0.078979027138473
0.0765815368476346
0.0775212013779673
0.0719190308316124
0.0785015591384258
0.0749636751022969
0.0787746097098452
0.0753195984413978
0.0788183784555358
0.0716730138187108
0.07651241661488
0.0730309664052876
0.0800732947211268
0.0788636569665895
0.0758591065885367
0.0731483873638469
0.0809040194895289
0.0700402830973213
0.0886805309679581
0.0721094623994668
0.0791176703695984
0.0737566792153317
0.0762960805862528
0.0731209649745402
0.0759656552193489
0.0735768627174615
0.0777959881390005
0.079076900417588
0.0726226557114587
0.0785787818822276
0.0740450437859323
0.0742788502026095
0.0731168556050296
0.0743117984179466
0.0748226010910342
0.0747497232120603
0.0758049014139552
0.0721700968451154
0.0758760193603444
0.0733365565649407
0.076616876010053
0.0745900721072957
0.0774185593840012
0.07610831856226
0.0733207594036007
0.0736446757972826
0.074653563025465
0.0738881727316459
0.0765870381473585
0.0819677493363477
0.0667725050003786
0.0798055689841049
0.0725558972638696
0.0783883145592655
0.0730698280054399
0.0759273530356431
0.0759473651791665
0.0761390930143565
0.0743539695878501
0.0769740458225844
0.0747876970961487
0.0764363869068748
0.0747478964994033
0.0748140382166029
0.075617099491442
0.0746330063430275
0.0749434745618865
0.0713956015371421
0.0790183635977874
0.0726603589806884
0.079765204062241
0.0775963032348486
0.0762691187483051
0.0795592486661009
0.0736547992293976
0.0758055786267961
0.0722877769660794
0.0766170273592542
0.0716797882771456
0.0781583420224302
0.0708759680384102
0.0763523387857371
0.0735106235984738
0.0771343393647965
0.0719006915984029
0.0773627237925057
0.0702238653737846
0.0767615315377919
0.0698137039700151
0.0816439586684746
0.0731217176945491
0.0779110756305813
0.0683763595346556
0.0840546788123683
0.0718127908893839
0.0834085343817731
0.0693019647938191
0.0879491690485552
0.0822115713375101
0.0717391068134585
0.0834455003242031
0.0705765288928134
0.0790581309407582
0.0744799129436527
0.0789908994472083
0.0792599184266132
0.0767354826976089
0.0766886312963477
0.0783645802738942
0.0740467949844027
0.0780455221552634
0.0751175115050782
0.0781606725580117
0.0871599386055729
0.0749966880393605
0.0804656176052946
0.0792736501384248
0.0718413170907454
0.0942041893186446
0.0719017430167309
0.0858792273228057
0.0785870406613356
0.079369351853928
0.079275640595433
0.0811934223594891
0.0781503404740861
0.0825139346411048
0.0786878086682274
0.076792194961969
0.0814183952439974
0.0801681966499012
0.0820262452952449
0.0809297277349498
0.083079942859614
0.0855867759318729
0.0793181920136418
0.0852653823795869
0.0839370720062927
0.0811734414892942
0.0807194464257491
0.0827712454650425
0.0844703474598008
0.0838225948936273
0.0898666647938616
0.0849939188092437
0.0881166446728575
0.0880739843297822
0.0824429284586981
0.0875203273432423
0.0859965980897287
0.0891062755569234
0.0856491970292494
0.0785664997448426
0.106980779046784
0.0780070591168646
0.104219252470712
0.0786223022505198
0.0961515218284334
0.0795423463327325
0.0951180479984057
0.0786947578772101
0.095557005848398
0.0824902003958805
0.0930339899337434
0.0914279618468817
0.0909398025943023
0.0934084904388423
0.0896332748126934
0.0947967679766205
0.0922961333349606
0.0915252609448002
0.0919258774568387
0.0987361058176883
0.0877571241570467
0.11553118747047
0.0912649530641933
0.0921224961646318
0.100626672119231
0.0898110878887185
0.115168274597992
0.0919301858969236
0.100478789786163
0.0964527282248549
0.0966820039881927
0.10329982929382
0.0928542420626393
0.113112255153366
0.102589984754256
0.0987235757189784
0.108206256919727
0.0978742132629181
0.115076141827975
0.105430064330348
0.105613369284462
0.103191417996919
0.11437010957854
0.105361514455607
0.117139030968621
0.121713528751487
0.104136002247678
0.133781237016973
0.108563087537642
0.126533196930343
0.110799461165411
0.126342646956956
0.11785569451461
0.131142511227866
0.116769531093746
0.129051105999028
0.116176299431885
0.140317954607633
0.117021114089975
0.138663233517172
0.128081976079864
0.1365125019652
0.138360379644446
0.154154198156551
0.135639055249065
0.146723091544587
0.135437392352165
0.15364556664873
0.140864901167171
0.14424560633094
0.145434568579671
0.147571934805979
0.152075221732375
0.152983298143723
0.155000075475245
0.156724731247819
0.152133986244102
0.1650164228863
0.155594117110893
0.181603738135583
0.159027517580653
0.186493290977141
0.163145565064205
0.181580509198943
0.169008233627089
0.1744381779493
0.173697503166515
0.175540957682722
0.179841829161942
0.179555984941535
0.183624302429772
0.185903916577536
0.188575715733195
0.200196511839295
0.181758656079426
0.217892082328708
0.188126564309458
0.216160908232242
0.175788263635355
0.269895004382187
0.216729185893084
0.222694360042048
0.240284794391141
0.224893487161698
0.285129978666774
0.247363255450266
0.257440949330679
0.26809019861876
0.271873954498677
0.276986328981035
0.294255321923759
0.297702933524901
0.308847502106007
0.317246874852659
0.316652682092507
0.333468736387056
0.370102227947401
0.356040249800001
0.372499752157962
0.361686195011556
0.378909929151105
0.390584099823559
0.396667962517929
0.401861944501282
0.418946519671098
0.40409176824787
0.478770942339983
0.43897608682048
0.467728948072298
0.458711974168117
0.485363142779889
0.478471992423326
0.498251179169684
0.5289947022731
0.500663790801402
0.533023495425678
0.527602578961519
0.56451830432868
0.549954012566371
0.581679557097052
0.575991084807786
0.586167879894998
0.593720553103242
0.591464427526324
0.607718921398395
0.614216230677568
0.631736130327993
0.627792305920174
0.644200530178725
0.679718286520591
0.685518517489401
0.656472921647432
0.631291779918299
0.660003804142671
0.628773161117678
0.673140223101775
0.643441058200242
0.655992696236972
0.670542667220879
0.655537171248579
0.662285119334831
0.655010470816941
0.655546358642736
0.654252682646156
0.667284363848177
0.657127917485087
0.660089849625184
0.688471331780744
0.63432527971591
0.730524588905625
0.658232006616347
0.665093852130108
0.642089282184095
0.651684397364034
0.638583606832025
0.658981131950058
0.640860635852476
0.671698861567301
0.624911788468037
0.626746621248369
0.610360156503061
0.613042962599335
0.625810555430176
0.589365826210304
0.589292026061946
0.585518527788951
0.571728839495024
0.571065628797345
0.55214032658652
0.61907305850647
0.544505036305402
0.536982916583945
0.536407449997676
0.525826864612694
0.528730277047125
0.530457283844819
0.514624428859627
0.513947991716424
0.501182153799382
0.49634498378584
0.485135318260698
0.495641520804049
0.490244323683569
0.481007716239487
0.483645674458653
0.478208096207125
0.474141676319227
0.469513666249248
0.467303610077574
0.469219237897565
0.459635901802474
0.458457310338818
0.460798629578245
0.466482044882154
0.459163584722006
0.449630549942983
0.450784458334091
0.451591561008878
0.449401848205061
0.442624379481011
0.450816532356444
0.447768363399057
0.443198546176541
0.438531835384481
0.446982183023207
0.443530916941736
0.441910480424716
0.438892113837823
0.443910697551
0.436846617417453
0.444912682842029
0.441056317106717
0.427548496717052
0.457177218615464
0.423322223584748
0.441676007947092
0.421583358651352
0.433435179012778
0.428557644592404
0.439365175363429
0.433708842282633
0.42564341049782
0.4259881345307
0.42201854646399
0.420265501718996
0.434638034577719
0.422391867761746
0.423311940834199
0.419936237253392
0.413188790436903
0.495343240489638
0.42135241100995
0.477237849908166
0.42385590600525
0.433731403840406
0.419388839086461
0.449313636287666
0.423610120700388
0.426823174563859
0.43654109556524
0.414819186997904
0.439050300453417
0.425745011918684
0.430705117019938
0.42310888587573
0.434154157736624
0.43640747052077
0.427444666151569
0.419593904109328
0.440120207366704
0.433524059779472
0.410459606328234
0.425702622487755
0.419483495240247
0.411460015163298
0.407159272315674
0.40644332506776
0.399285634136024
0.411594898527325
0.408438413900302
0.393797589919773
0.39993936837643
0.380428553399346
0.395936222094568
0.377070870598344
0.391117581889366
0.376530784249084
0.388847257714334
0.383759392839587
0.362816664568765
0.393283092794081
0.374863097187996
0.390936234862363
0.365189872547868
0.364766935417788
0.354671238756495
0.3806395033732
0.354785120626014
0.351164045609567
0.351390743270764
0.34921937994437
0.351810970734759
0.341772049152439
0.329480768941748
0.352094772845263
0.339786640415092
0.347899418304015
0.341831083162405
0.338035568894767
0.322683475414383
0.31605162466812
0.319497670863335
0.321720492615298
0.314281865990939
0.326652839568196
0.295014699765983
0.331250798076237
0.307520681214286
0.335057265170548
0.324119880477063
0.313763774747854
0.316734188475766
0.323921720433024
0.321822579722235
0.341330594213754
0.328503629451929
0.33657924125183
0.317911755620045
0.348643642677003
0.339037942846602
0.34180126769829
0.3414195418751
0.352680028004242
0.350930939807767
0.362767767820176
0.369583791099465
0.37415275910833
0.379231633696831
0.396347307023606
0.379566552908499
0.413047455518675
0.413357133849185
0.414792976048108
0.453452143529904
0.422151485833359
0.462216645854815
0.452087361884746
0.462755032471632
0.469860158733808
0.470705325745585
0.488021970931253
0.492018018775624
0.510447015451031
0.506197300602865
0.507666413694369
0.518727554566648
0.518499920283347
0.531459591787173
0.53085828809728
0.576396793218811
0.52174111528817
0.579205815010434
0.554218485369888
0.560505394030599
0.553379669695996
0.56667605876647
0.569743503351385
0.55879229464614
0.567761832354485
0.571143307815928
0.588021810503689
0.581380858615682
0.576018771149671
0.586841590867845
0.586236375179038
0.588345656942785
0.589781128668014
0.597711072398358
0.598866639623735
0.600069231533363
0.603927760612542
0.605309485912626
0.627453316322122
0.628868094000067
0.608026573519063
0.629421698721538
0.620706752297795
0.630881775824699
0.630736518769518
0.63932935873828
0.650130017802391
0.640456721981895
0.647105574184687
0.654458221012635
0.653587289003956
0.662353612322979
0.655399604781163
0.666898099807513
0.660109235054365
0.677106294120421
0.65231368135744
0.707563713123026
0.684933028551462
0.694119492781596
0.691940692109152
0.686285690524551
0.687789758090444
0.685047260228071
0.693484836766864
0.69346109400011
0.69326077175026
0.699045512330207
0.701226200578804
0.68189753301041
0.695283602512873
0.695104324557557
0.70078060819525
0.70122748458884
0.693692785027449
0.695097580345625
0.681335139895009
0.685271987039087
0.685125443418926
0.697970839854977
0.684717465090204
0.67635625484128
0.678688241108642
0.687254534128562
0.691285595074695
0.681848047627362
0.680378936529512
0.691538614943925
0.682067284189212
0.68705534865393
0.685555774528966
0.702130723034291
0.698460104252096
0.69415876737312
0.703166761504489
0.706421608045425
0.707816425172282
0.709038680169888
0.718154334071935
0.71144918702741
0.728848976198136
0.722341394864116
0.730657150620145
0.719917276344414
0.724128776649519
0.738269194422151
0.740201366793055
0.73068337042929
0.726674208817324
0.730117980835478
0.735951979349272
0.728651307768374
0.722481373758899
0.724474225512097
0.722428080071044
0.711067634152247
0.727898549659871
0.720761441330857
0.714454364461443
0.704389621625419
0.709716630603332
0.688592512412871
0.687303323048081
0.686677095943796
0.687238104728756
0.682982114429976
0.687254893140294
0.680992705987687
0.674804991719525
0.670170323025412
0.668955184716564
0.664235026791103
0.660235560511551
0.657930551088809
0.661531761105174
0.670303721962141
0.66139733362236
0.659295447200292
0.657877888433443
0.656136901458549
0.659673097791219
0.658218301718798
0.672330577073602
0.655627928355018
0.667038053869844
0.658201544463084
0.657879659325367
0.65652511704317
0.65599058674338
0.648388191987667
0.658588332135736
0.659716346366043
0.656781765926143
0.650476338993017
0.651353705409133
0.649192297183079
0.648892954125109
0.647544431187616
0.643427029872562
0.64696942183956
0.639040533564338
0.64339377481258
0.650005863886703
0.639587785325752
0.640534614325293
0.641777692407382
0.641805316782028
0.642253176155094
0.64294093110154
0.635270684802377
0.63173605597001
0.63170523645669
0.636413458698378
0.63571301841335
0.630799157882701
0.63141540148872
0.63738732608839
0.632288733164419
0.62497244534138
0.630861512177739
0.62691926428493
0.625094774166671
0.620938091552642
0.621811038132279
0.621578228785691
0.604811446796287
0.611904521507898
0.607871400575797
0.597311016793304
0.594346239613358
0.591235456680276
0.589507277637087
0.583037185051485
0.583590524817638
0.580136976778517
0.56856756178418
0.570476689911867
0.56618709954152
0.563995794724964
0.561213239670827
0.563333345588125
0.558274245644226
0.561439822926003
0.558452735628242
0.55214868516967
0.55646858252241
0.55570895649296
0.549118536052325
0.555094925832343
0.548896802542972
0.554825476641737
0.559476753474082
0.556299931282426
0.553455234540977
0.560036935378622
0.559318397165885
0.566650341999366
0.565819652967491
0.570911389420763
0.56563454862464
0.56848983819231
0.570026778362093
0.580788487408059
0.581946741964648
0.58029129251273
0.573662085139421
0.577734275884639
0.581610639911664
0.58520332347316
0.582195447885267
0.589376970813948
0.584411361476527
0.587958850233305
0.58977950557455
0.583313123892005
0.583425590140572
0.581765599650643
0.584927878842893
0.583420617446025
0.581487898568619
0.579039390203875
0.578475542392977
0.582513509473141
0.578371089167435
0.577509513005778
0.577428470011725
0.57614616262673
0.577947554192378
0.571304129938574
0.571265201097794
0.566804577830218
0.569161551156375
0.561654358545115
0.565104899322018
0.564234765364444
0.559276796854565
0.559976805342568
0.561815604374882
0.552456558412196
0.552552874546694
0.552190360571028
0.551278912833068
0.545185082491204
0.544494604222632
0.544185785006938
0.541543039372979
0.537430699584323
0.536862900715108
0.536520287286307
0.529147620595631
0.52869141366174
0.529379676587737
0.522792893142662
0.516356473019761
0.516066680960617
0.512369333008897
0.511768463306339
0.507369041702619
0.502419320828016
0.499269483238907
0.496575133527031
0.49785746675781
0.494324597096985
0.491922684651376
0.490381143236485
0.48711468816254
0.486485920623508
0.484227717794801
0.483141202534425
0.484409443108225
0.482363241288472
0.485097527062571
0.48370018773015
0.475367830684747
0.46829636834784
0.47015403631162
0.467231836374761
0.462585027894838
0.456924099721849
0.451897648822228
0.447224286464883
0.440588949049576
0.433826529337951
0.429868588990996
0.423652155669754
0.41957271138466
0.421824815329633
0.41282272328
0.416203893682863
0.41575839063691
0.419741981481899
0.420409354412351
0.430846260727105
0.437828624434515
0.446318287765658
0.454692195824289
0.472127112274982
0.482805082546077
0.500744231061566
0.512802012792232
0.529842638524211
0.545003362155474
0.567229889600169
0.586839299917717
0.604846835174467
0.627023898107854
0.645194809195683
0.665328203772991
0.688041914901686
0.705612030152254
0.730804947226993
0.750244313352304
0.77227009916529
0.802946892989111
0.81770541406833
0.836749414457438
0.857329795656808
0.880954474928335
0.904132498365887
0.917068265027493
0.931247716678855
0.936395599598209
0.954474276918036
0.974677968141683
0.992066901127318
0.98943080629808
0.998016357818432
1.00408289677486
1.01015824657287
1.00869868612352
0.997081677479482
0.999909999968563
0.986819272692127
0.994723611041514
0.991134691523975
0.989119167217031
0.974212514060021
0.976234216620031
0.980329860422428
0.988178377277243
0.971570235543202
0.986870425363858
0.978963659633749
0.974761397553289
0.979392946960127
1.00131163978679
0.995412229061653
1.00236166160567
0.998751128301781
1.03037752064744
1.02440680353468
1.02635401356884
1.04324895709666
1.048702923849
1.07886466504893
1.08103015874731
1.09917994904459
1.11715052141473
1.11170677911729
1.12824028964219
1.13534075149421
1.16859692447484
1.14563434835299
1.13941432881666
1.17086398250902
1.15336300426156
1.15473170507747
1.15123461018026
1.16869811854359
1.14655235201192
1.16142655301585
1.18507719717435
1.16468323341678
1.15618010091242
1.17127075508698
1.18419253515834
1.1720926187036
1.17363251287468
1.20045839531075
1.22263966824301
1.22810502900501
1.24644198444322
1.25044535028839
1.27225244298292
1.27877265839604
1.29939144620998
1.28815115363085
1.34179789978781
1.34101540291903
1.32810100962484
1.34775154363299
1.40438131399808
1.41160465130882
1.4262021718839
1.45933212333846
1.45833800771111
1.4928045756467
1.52705009908102
1.50722836122745
1.62427284610642
1.63633865901707
1.6749409767175
1.6855305970416
1.61572963455478
1.66741189348649
1.65926174212895
1.77246960851953
1.77566089590406
1.79003501695666
1.72924862033143
1.76334413889657
1.79779856440698
1.92671514187199
1.88539949113803
1.88251969196213
1.70046477848556
1.79672781309373
1.82010791418782
1.91498625308332
1.82818441051378
1.93428036009174
1.79950058481587
1.94583538299759
1.8744044764061
1.75901678434208
1.75617536515697
1.91436031108181
1.83466243806197
1.84777305018386
1.75377247090593
1.93672628028536
1.89608795924037
1.94181304122717
1.9420666236948
1.92480511203131
2.03699263476404
2.01225336150044
2.04384157655681
2.07613767033852
2.24382981398029
2.07619050526873
2.21942211953506
2.06626289283863
2.23592666491355
2.28272366451134
2.18688884888975
2.3242704012384
2.17343539522642
2.37113625736137
2.38017701448513
2.03944199134957
2.32690429268377
2.00717190711998
2.31456126743023
2.36633467217549
2.44111477210225
2.26806098808415
2.30821570521882
2.62825697256152
5
2.21494899916003
2.89041296898218
2.30120206528528
2.52888565069266
2.2512786953656
2.42136727895705
3.29892403501506
2.50103690181118
2.22930720036012
2.39564513268892
2.45693990481272
2.56121790624067
2.6252682200514
2.35767450201309
2.11144251716978
2.86247996120407
2.34530377180232
2.41545853181407
2.12196727078887
2.21162222265657
2.18687834688345
2.01356824570018
1.99231471313186
2.05355329116218
1.93526525970289
2.01561664994942
1.90873565754176
2.24266576815214
1.95758390864772
2.1173624570084
1.85285882867238
1.85816568963869
1.79746091963752
1.97019027162818
1.83808413831839
2.00055162356786
1.72660099172678
1.9045161984825
1.68549566323986
1.78003618213841
1.68888176693654
1.74684318885364
1.56865441362105
1.5832022194203
1.59240894581074
1.54352814258323
1.51249037337115
1.41415900746799
1.37979549838617
1.36654392306361
1.28611212802065
1.26334905161506
1.19564629008854
1.1243280989065
1.09797539842217
1.02975883616168
1.00815331000142
0.950253598127097
0.911298969427978
0.882652705522421
0.833650633941332
0.806927892266424
0.775484121568186
0.757031474454157
0.730211254985904
0.722812092960704
0.695264607321146
0.687153236583256
0.663869887981239
0.662284975325921
0.652264807184919
0.645470702624337
0.636123818797501
0.633254158302205
0.620711603065715
0.620062098348623
0.60419795235142
0.624192025355586
0.60930678053651
0.611384444543585
0.610760723097236
0.619285702157314
0.614409859090144
0.626836030721763
0.625287522325381
0.630709499485925
0.624895326055528
0.636768682148499
0.626346414229249
0.634739169830603
0.631695587629315
0.637241612061094
0.631213511055034
0.630713607503636
0.633028231353076
0.626085199946194
0.631743976976517
0.631731868459604
0.619232632655815
0.636018376040114
0.63268678733074
0.633583503750318
0.629725389006674
0.633063686943383
0.634970954591318
0.644641700264965
0.646525520845822
0.650548895959041
0.63805692033305
0.636905642087179
0.645035306913545
0.649726257870966
0.643167458575322
0.642231754280082
0.643463128445378
0.657887787033903
0.652800613638698
0.637910064418188
0.639620044848405
0.644211576512428
0.64173337706886
0.633051142252817
0.632435252800257
0.641177022942152
0.627923227282758
0.632172916980279
0.64716207966618
0.643968982901875
0.640701962687587
0.646361468685409
0.650926039063218
0.671548768494801
0.669185267039653
0.691900497734963
0.69861290387108
0.719807002768502
0.729360543653417
0.735520290068841
0.752098954406353
0.76588714506329
0.768406188172101
0.788764942804467
0.769469572667732
0.770083272229975
0.771208244864268
0.765709132074155
0.742022190544223
0.738478597970332
0.720045290664632
0.724761794058645
0.695733500528643
0.711696224686237
0.701246216339262
0.693644602500746
0.689352414466998
0.689263712885938
0.682630501772294
0.696196737797615
0.690021308168416
0.694596655906043
0.685067599060502
0.696504286040121
0.68633835888221
0.698951700712814
0.685755674808272
0.688678494907994
0.679520605146495
0.673415522240408
0.664404806566298
0.687189757641469
0.674833631011195
0.680141120606663
0.67283417260643
0.683987351573217
0.654252854769105
0.656437267114236
0.656507046944156
0.659045729321027
0.652128226108854
0.66793772181083
0.646344865817842
0.64618231007932
0.65155622317504
0.651626560248122
0.659861770801215
0.659340272817877
0.621591689345865
0.636983714381993
0.625463964026515
0.64079075936879
0.642925820306343
0.644303998243935
0.624365268448671
0.632675162794874
0.624072331771954
0.61810485823658
0.602510768831059
0.616616696140711
0.608524420830638
0.611350401059387
0.589731723859215
0.600480149045732
0.600099406004582
0.584605339496016
0.584081944902885
0.590434175494681
0.590299639036027
0.587060800078207
0.582985921586167
0.583395243196164
0.581509740104482
0.590715915071811
0.587258980739328
0.606453812199755
0.593182824488077
0.575982088923317
0.581141978487512
0.589457529004572
0.575674785712869
0.590514172380578
0.578264309523127
0.594266064146859
0.598933220447888
0.579655506489928
0.592427421092549
0.603110867327303
0.581968512402803
0.60020734909756
0.615428550872781
0.615463715671098
0.594940053108489
0.611630958421457
0.618271061987961
0.625626251837938
0.64883630209408
0.622428502295754
0.622024612077719
0.649266982989728
0.664661693338411
0.667304391579402
0.666954937101536
0.666682728195207
0.65654085319046
0.687353010113687
0.683755036456964
0.717117052705613
0.72579979737297
0.767802965310214
0.772428406290262
0.854987245749279
0.84152843824813
0.881409997973537
0.841204005184643
0.848041020246014
0.849211450234574
0.924541958707465
0.878970558172921
0.95485495496548
0.943596537448624
0.949589073738632
0.939579725075651
0.949528628321274
0.904441038931817
0.918555208297082
0.909503812562795
0.942164380323752
0.846569864675535
0.980786756224492
0.924949224566835
0.901742291278006
0.917337727665857
0.962917723864943
0.907759681396068
0.964152633500485
0.936821872187017
0.966219249899732
0.899638108779617
0.989883250641666
0.870579493042531
0.912727803667136
0.982454981048229
1.01881842703187
0.94242304753135
0.94963990625425
0.865991319368898
0.932623782436187
0.898274417306946
0.965835041813134
0.912373376702942
0.877733908699197
0.871772324647782
0.930585456260834
0.859909113845661
0.945249402685119
0.854123673127396
0.859915936693762
0.894081414513425
0.900265835676165
0.888498137321972
0.858184828560328
0.877645530881206
0.87709718747462
0.885757119152071
0.932964930824659
0.823157434219019
0.998628488975804
0.879375794974553
0.884883037100965
0.907015536826647
0.953003622774008
0.925610084750889
0.934420228023434
0.830643585391106
0.881642247733148
0.959250694832778
0.901049441928314
0.915163777383943
0.894634723453871
0.902751960792973
1.03633170273807
0.903836513757147
0.995522326893947
0.988423863033922
1.09585602613547
1.06207178188945
1.05191091729947
0.901285476972414
0.95554931360281
0.968776146438333
1.02927972612119
1.02738079411003
1.252418730025
1.07147477307168
1.22587216789927
1.06535425729978
1.0214876017033
1.01300331266999
0.97990460436418
1.17959493297334
1.03176897972522
0.915995096761602
1.09075607445928
1.07167845942269
1.39993509492404
1.16056091501877
1.36376905977864
1.22435160254494
1.47717484139727
0.895028054209997
1.22880142891194
1.52625077043625
5
1.16184739948943
1.22604776452049
1.46218778351606
1.05246245397124
1.28483488633367
1.84717389259565
1.053120112994
1.17095088564155
0.951111923016568
1.37364313418473
0.860857704974823
1.3902725879358
1.30342745828938
1.52670900915012
1.06805071065618
1.06623547265993
0.728837013694935
1.1499204564615
0.921013721092553
1.02500405420661
1.09375815020102
1.30976949553348
1.23986585069597
1.31453896816627
1.38961742970783
5
0.913550884719509
2.22707596218177
2.48312588765499
2.18315129162233
1.00385814615759
5
0.877440832020808
0.98249834870783
0.857429281490116
1.56110117453715
1.28872742883703
0.906352584687249
0.651489058866982
0.889079590513749
1.98477730203808
1.34079712582916
0.586479560299812
1.08576969541113
1.78019909056867
5
0.905774681193144
5
0.847537419575435
5
2.22171030973042
