3596
4000.36533379555
650.420452594757
1
2
2
0.054280734574297
0.0364821708736189
0.054195649801299
0.030617699278411
0.051658801567087
0.0342970566921532
0.0502526370298118
0.0416822147288262
0.0561016821138157
0.0249738948862288
0.0449114117186024
0.037375860866827
0.0512747742840397
0.0335519084572459
0.0500105494920349
0.032165639190437
0.0490888178495959
0.0397509359725729
0.0511357364814888
0.0370590576519054
0.0507293702613189
0.0296668542394014
0.0551426199085749
0.0343840439420906
0.0481662718945926
0.0328780393697048
0.0510542790442155
0.0402772956056438
0.0533305617430095
0.0376660752836748
0.0554381696087076
0.0332022167144258
0.0480691720973456
0.0412770074648758
0.0530995919663378
0.0353317513640137
0.0520757316169364
0.0390784318650329
0.0562674484820069
0.0346874715788987
0.0598413753379552
0.0411413091938834
0.0504810124212675
0.033044904341598
0.0487360261478331
0.0366141540837411
0.0472493027883664
0.0345445786994194
0.0437221190186406
0.0387536271122771
0.0504032171758847
0.0338894738781118
0.055999883394514
0.0413838229054659
0.040511272492728
0.0392602699368614
0.0448652689342074
0.0322000686421533
0.0556007518403143
0.0315869680548323
0.0531515559468519
0.0380224605625426
0.050194046724647
0.0418488945670574
0.0414915872726263
0.0325461876695204
0.0441977088156396
0.0432998383249627
0.0429289360540327
0.0469324942976132
0.0506644834515917
0.0350593084440226
0.0533984137139232
0.0336627024433098
0.0546909388988726
0.0328907135899932
0.0443041526434449
0.0288922244035442
0.0435629963333544
0.0299536597687438
0.0558263224290501
0.0342463793853473
0.0492258332745075
0.0367010337384415
0.0373386580873256
0.0328212499783677
0.0466266237397195
0.0268407861192914
0.0605413813052705
0.0342164520202155
0.0436736371496661
0.0365464686921231
0.0455025530036937
0.0330464424084462
0.0438591812939292
0.0311847885614613
0.0444361381881394
0.02975604240688
0.0453553683599725
0.0295849918212233
0.0544927421541897
0.0117769956408746
0.0736930962255887
0.0205009895022017
0.0505506537733388
0.0467507384122646
0.0339632828672819
0.0378044873572302
0.0428618256644132
0.0377092877224408
0.0420671642030498
0.0315598800801578
0.0324185009895842
0.030121845900915
0.0548882562797979
0.0288264017875442
0.0491174407277631
0.0302709601392264
0.0493544455991607
0.0329856361047188
0.0486009247825637
0.0184209461889911
0.0743816104027119
0.0263042284081507
0.0424553908135253
0.0299742898964828
0.0499387166142647
0.0233073881988068
0.0494171384562895
0.0209464247381894
0.045457503505762
0.0280744011473021
0.0584294563827008
0.0101811124010624
0.0736734339702268
0.0266232334510214
0.0472679939397173
0.0341672937628112
0.0289068956860268
0.0269728499417767
0.0371577532830844
0.0259344561772026
0.0494795641340889
0.0276015365625574
0.0633965641976876
0.0260067601636519
0.0461394278213807
0.0286020200389104
0.0474820052974872
0.0144281546780203
0.0450426181287822
0.0326799969045658
0.0435982627398031
0.0297174034764505
0.055270809480136
0.00370456999800715
0.0853340164230074
-0.00656595462992101
0.0741348488698157
0.020164968823884
0.048769818332137
0.0240198316074309
0.0395770931105352
0.0370913870902095
0.0360038347902992
0.0351350185494213
0.0433161160736115
0.0420402377850606
0.0382795728141136
0.0388455061660607
0.0441156138504185
0.0355110629439246
0.0488537931120883
0.0239086610407309
0.0506510440349323
0.0164051644373764
0.05981136559469
0.025199650415748
0.0460178927383899
0.011480529210675
0.0461917016759264
0.0224785539431595
0.0477534956657767
0.0294311017178814
0.0491463552532323
0.0228607088532896
0.0500588437237527
0.0236525586653669
0.0538752185964652
0.0317637908272639
0.0612454644638743
0.0138312250958115
0.0530169404673923
0.0198496981368435
0.0478008637545828
0.0270623479840139
0.0405012597943117
0.0314697878110775
0.0306901732006779
0.0281047405135774
0.0414576253037869
0.0318320273414422
0.0479838705818204
0.0252455846297271
0.0454096734441017
0.0241748114031135
0.0460688063846184
0.0319712804727118
0.0440540359626917
0.0283816513934906
0.0529147697897403
0.0351091876711116
0.0376170372527525
0.0396424645857013
0.0353630858153735
0.0406243252675021
0.0349472109942242
0.0389130631217513
0.0419559511129582
0.025505205628698
0.043937869482218
0.0300430785381969
0.0475207411916121
0.0269240076919763
0.0423148202091427
0.0324738068549435
0.0385471923882252
0.0357383400511109
0.0433536551927875
0.0352951364463591
0.0390408099455809
0.0352535442579995
0.0478181057217093
0.0270154459374855
0.0505674009185786
0.0351243106274916
0.0555156433151952
0.0218195275977745
0.0427381728724738
0.0299698210593764
0.0409283425876148
0.0271233047296412
0.046138257811384
0.0249299869919691
0.044595905003666
0.0329092089444492
0.0506084854220566
0.0372315393635239
0.0387266888825725
0.0491451297939851
0.0359475006537945
0.0547917256582827
0.0331346252785021
0.0412094259787645
0.0395158691281347
0.055251845199764
0.0354531194725851
0.0414489426605321
0.0469827592687394
0.0484252948429895
0.0387646054504732
0.0397703873570653
0.0406331403723641
0.0458052148793037
0.0544099144133383
0.0285255311129638
0.0641422787703805
0.0270838470951477
0.0506138147353268
0.0511135881514234
0.0415356319073927
0.0535084413750338
0.0478455601232572
0.0167728663844719
0.0472089417780545
0.0395350645707891
0.0474432577421484
0.0343357767053446
0.0514077632947855
0.0287977881440115
0.0679749581388886
0.0424929529436698
0.081943687440647
0.0543634009386736
0.0478084655281465
0.0497489581563953
0.0327397871432041
0.0478741912716707
0.0332920700920623
0.0417453179785922
0.043838285113879
0.0594491007255238
0.0376953984519954
0.0517115748896275
0.0320639909214037
0.0542743745673561
0.047762405156317
0.048035513279896
0.0459519950112805
0.0423696610586484
0.0508135841991489
0.0505732682735505
0.0495442597403149
0.0413669372957651
0.0477909894963894
0.041582746325795
0.0591732061222545
0.0507267995549842
0.0548728282549799
0.055745318171017
0.0470942608347248
0.0434242728348125
0.0538571756455332
0.0452580041194794
0.0474936782096617
0.0523741677031686
0.0505892258127928
0.0460518455654842
0.0641751717008494
0.0492540710476504
0.0547195742877392
0.0422216675298951
0.0635031290282305
0.0466664602308683
0.054223173347796
0.0516896567769384
0.0594019701340652
0.0511052583875101
0.0558230423392372
0.0589524741582117
0.0485586942694394
0.0560712111925861
0.0815032237715455
0.0394944975040419
0.0715045693731648
0.0501666983434026
0.0656282218585886
0.0576350282922812
0.066480558116899
0.0584648724789091
0.0648800119717628
0.0628640893070789
0.0750487186820828
0.0633775550585101
0.0706145161863627
0.0694742324735486
0.0946740085512698
0.0831484752121122
0.073983650796567
0.0727593935429119
0.0718469434923362
0.0909913877675914
0.0627091008503114
0.0907294478157975
0.0643361346156612
0.0747938218246089
0.0821725449197518
0.0738311913449029
0.0834534650719605
0.083885247324997
0.0939531779620442
0.0777654138271627
0.0927985718497906
0.0823847146554593
0.103068276813798
0.0823832589389158
0.105552408833961
0.0998467598760593
0.107493287251267
0.0967264966050077
0.103541977153453
0.093559627792608
0.118898112693179
0.0994648900690326
0.149100390423325
0.0774742055663303
0.136978658342012
0.100791776859092
0.122200407499218
0.122637716126717
0.117415861130362
0.124360054239401
0.129144466736684
0.12484220673734
0.133227206231975
0.126891581552466
0.137214006801064
0.142016333842153
0.138998631848486
0.136794786576215
0.144632660975449
0.156218619887777
0.15323749532518
0.152334903313193
0.147136143136578
0.172314178141936
0.153843169625487
0.191565136717136
0.15277439256479
0.158723028219779
0.166277265583009
0.172512660956382
0.168723026610647
0.171194258753578
0.179338311783275
0.183224509652146
0.204243816086665
0.192049438941464
0.207628403862541
0.190561882685023
0.184044750235056
0.201906335590893
0.199437727023223
0.207898435048427
0.222874443965703
0.208850550411422
0.199455593957132
0.238990867581853
0.213011466371349
0.230797085032101
0.23023233652635
0.217858892554215
0.238233475281965
0.227327772637856
0.244903341843592
0.238987812498154
0.255161050271109
0.243257011657176
0.260600210204998
0.244692569708999
0.260028194864537
0.272895950072974
0.274939832234941
0.2705762665808
0.278459548418297
0.280571450350282
0.285126884744537
0.286536414557834
0.280259189734552
0.30256791278909
0.278478866363971
0.298989812221175
0.31651628441353
0.294455953382383
0.294071586072052
0.293254939561286
0.318843028982302
0.315745413825714
0.319363820487288
0.323265359431212
0.332328141924165
0.331494436207491
0.350061111455906
0.35642264066336
0.359250944623316
0.336194509196823
0.352145438254322
0.350748066543882
0.356028509383739
0.367527777576874
0.359756589771228
0.404453408949784
0.396053939150303
0.40308553750961
0.413321615752811
0.384540665341551
0.408293150529052
0.403006162494544
0.387044181713852
0.39305438740125
0.429659333968389
0.407390673954219
0.444228911754204
0.437716470501906
0.429603803955727
0.424602586516777
0.43225996078609
0.466580446757781
0.461931079859442
0.46305332776152
0.475349038583035
0.455216950446675
0.469498395248686
0.47396723201828
0.488646729472712
0.474716600570856
0.493482203734025
0.501333014302994
0.510614307975331
0.516395075214077
0.510279746668697
0.525015989417458
0.532835430851778
0.533311968754647
0.52357916317367
0.542585692571906
0.548186994536041
0.560656788304149
0.524278954277673
0.555803455991262
0.562755178434057
0.548104216372235
0.577018542594774
0.580591588411858
0.588498098852132
0.60832206720322
0.60306795837516
0.571290079513194
0.59451733907185
0.631303658912958
0.617173833594656
0.629655716725092
0.627149033120808
0.637025023283926
0.633396293822253
0.628734680466968
0.659091730642765
0.643137687390589
0.627447416296218
0.657782993537059
0.632439254799398
0.664686483969145
0.666683495774222
0.68689595889943
0.694403495653404
0.70321170115082
0.690764456175215
0.686079263153619
0.694744417702053
0.732463270323862
0.71640653148087
0.706112792264325
0.709709008006796
0.741273752102553
0.710120891489224
0.762976918617494
0.720123736954438
0.728497000922113
0.758565640183334
0.749761296818494
0.76433472344494
0.820413365970046
0.729237706697555
0.818266729905148
0.783290408837587
0.787689476297455
0.804913464440258
0.826816448146742
0.792198171879603
0.82943858584888
0.845040998876826
0.863283708006634
0.802878063005116
0.842934793455164
0.824610923156732
0.855054869409991
0.833512845305725
0.903767192183259
0.890757162745077
0.866032509729533
0.864001095204058
0.919397741205369
0.886483258461689
0.892982262648723
0.901230242684653
0.942437508073681
0.900941626900387
0.915938493301054
0.869439413730016
0.958527389418772
0.914184271937403
0.987244516237908
0.92744608759312
0.941445987121082
0.975212998299062
0.929344248799373
0.963320966954461
0.981589003564943
0.898474405205267
0.954019752415392
1.00804573566543
1.05722382073187
0.966989635532828
1.0134506602626
0.928491686842271
1.07008364042755
0.983082231625054
1.03363621890074
1.03413682348612
1.08527556542631
0.993662464362563
1.02531245303377
0.997509421966768
1.08166687344875
1.05367168660302
1.07846250732601
0.983614866460539
1.09357879377026
1.08790411749205
1.12507826993159
1.14356987290188
1.1728431993904
1.0194855993711
1.06516162136472
1.03590762880712
1.10357145575968
1.11584187768855
1.16535919842028
1.0292781382517
1.06036340601801
1.12515505131992
1.16105757273723
1.09721005056118
1.17021603889062
1.16273230302894
1.13679751306797
1.26202238653797
1.200449919231
1.07471015988483
1.17596744355726
1.12889377487328
1.22118185780755
1.13405759009451
1.19913140492377
1.27262439615609
1.30951504292203
1.1949838699202
1.22493260043861
1.17080505397717
1.26250755568097
1.21260362791715
1.2629227448806
1.15157368369102
1.18403966836506
1.23375319473577
1.38643788156629
1.2116699432239
1.25504444063906
1.16264375914372
1.27473467075665
1.17976131676041
1.32052022437577
1.26524310669834
1.27520097308726
1.16265271805833
1.3774700677354
1.2935799011369
1.46120680962154
1.24070536902745
1.31245053821213
1.2364418709479
1.28063560054952
1.27065881628051
1.38204428148965
1.34455044562654
1.44904824686693
1.2367317679197
1.56139824254274
1.32088294703391
1.37000465849063
1.21366096539136
1.29764743561203
1.28600392027246
1.36763473959788
1.38929369908223
1.41078865507321
1.32006932813035
1.47343274474014
1.37416015730183
1.42929245697526
1.31902067901277
1.5548873551579
1.26342284401248
1.34455396690183
1.33858256965227
1.43704786341547
1.37399061869207
1.49209800346431
1.32343963404183
1.45711737026634
1.42558283310653
1.47824049839129
1.37265671550663
1.46746050416286
1.33441546442584
1.44716806200882
1.45741400119559
1.53366646987785
1.54617546950836
1.55134923393005
1.372395348882
1.54041943390957
1.348356434939
1.45417230033085
1.37336192279093
1.34831621994651
1.32234907723061
1.41085624777382
1.31121145240797
1.55971329621687
1.43937790373154
1.44289148722545
1.33608154082763
1.345013702521
1.34309790690764
1.55944384447245
1.39989458985531
1.49145700729597
1.37103352193388
1.41804836053435
1.51000473057392
1.55845265551481
1.39507605592661
1.64438740735795
1.33931416250147
1.4333984528902
1.32488192546166
1.59785492951511
1.36952823965883
1.41002276214155
1.3790442843047
1.515181199352
1.40547112592443
1.45966448920664
1.49320275868321
1.64120374332172
1.49962165409464
1.60406359331022
1.3833260046811
1.59323982700324
1.42781169625812
1.40680733601379
1.43905788423132
1.53222318282471
1.51678493211959
1.52520034076009
1.41388091105838
1.55860603756403
1.60328316903943
1.57954700397972
1.39207980020785
1.34131844364895
1.51625953050242
1.4519367140008
1.50331523890009
1.53948639337275
1.4103498114942
1.43967478863749
1.49509702828396
1.47312782230185
1.42891584366719
1.53107050581184
1.43725318205184
1.42135297107438
1.43621296920431
1.63998104196472
1.44362667046478
1.657042099965
1.39233343217193
1.39272340719006
1.50497074888798
1.56944947671859
1.52749062276644
1.52809333801422
1.39488836180957
1.60623767785526
1.47215797748637
1.60184526099445
1.45610984483028
1.58987285255285
1.37870287444553
1.54333010175189
1.3757147184203
1.41516157788649
1.45760789187022
1.77383412821478
1.42894600367568
1.47240593642433
1.34167825448764
1.47790655779635
1.45177702117349
1.44711921214623
1.35608017641288
1.51912672007438
1.3919602466752
1.43579270403996
1.34879170429821
1.51328792027686
1.47944430842879
1.56292026813731
1.41263490805861
1.50909802578972
1.47419732929398
1.59149598447759
1.35654335072336
1.48799733924028
1.29960651602777
1.5260218338412
1.34697912498469
1.49936679803566
1.45189280075512
1.41974376029095
1.35782958929803
1.38811414376606
1.31867060504944
1.4001830091659
1.37842339661031
1.33705392321195
1.33858784455377
1.38655892687799
1.38967362240799
1.49610314073447
1.31041552758572
1.42343957879633
1.46285970604324
1.43120601169022
1.43306380044445
1.3678977103564
1.34341012494943
1.39468791450624
1.30562501365277
1.46753158967856
1.3567924111252
1.38835164134578
1.34191351800383
1.4216310894302
1.428697365339
1.34784961668182
1.35266551967168
1.41454392328681
1.33486234570433
1.50897069894603
1.3196693677063
1.45402034393285
1.30283813132905
1.32068861685149
1.31417953139823
1.31971580459484
1.24584438579964
1.3631992388625
1.26004177954286
1.35782150995957
1.24298096044202
1.38918388636573
1.22403489492751
1.36911601828104
1.25102491959104
1.33214030880749
1.25499563744868
1.31658779355602
1.26505643171416
1.27331705273535
1.25993924549429
1.21847889884642
1.23076859792813
1.24788463746185
1.24485705543202
1.25416529449119
1.1936847298294
1.20896661836123
1.18084135228816
1.19895005630611
1.22062526236433
1.30163295365469
1.19020932856077
1.239477086405
1.19584245394385
1.24324838072652
1.17035591674963
1.24597331983454
1.15390374078728
1.20953517091976
1.17153996448651
1.18693597315831
1.1321213813246
1.12499324576438
1.17240009207206
1.22871045758408
1.14044830210596
1.08054506833847
1.11521406251296
1.145274466049
1.09606807286408
1.11746717248383
1.0687869049542
1.1456462331353
1.09193865462071
1.11661512085832
1.03828487590383
1.13625636841187
1.04578381108347
1.13516310028607
1.04690607711426
1.09093837633841
1.05630020728723
1.08901800185989
1.04141680235325
1.03784101537677
1.00193525790554
1.06605244084648
1.0035926349079
1.08025141392223
0.997899839472104
1.05262385379595
1.02331958823091
0.994026823813386
1.02686113573843
1.00093752523914
0.9906167616949
1.01785021683338
0.96880496254608
0.998121094137819
0.973901831079654
0.990709134702376
0.944669894206467
0.965607383274005
0.980409141768527
0.939550104225207
0.921375378037731
0.923929301610946
0.931395489423117
0.943859126295272
0.925133566671493
0.90817397530323
0.889805053841445
0.91683413475629
0.902456851083009
0.917631545021951
0.905655059541778
0.89563895537527
0.886521017290953
0.881177680570323
0.858764675755974
0.894943807463527
0.851706245643436
0.878064223650265
0.839709109061597
0.856661646289182
0.844523120483346
0.855417540294321
0.836415584622768
0.8592544950882
0.812795127496809
0.846181802269844
0.816997328193876
0.839509918713842
0.793658222967651
0.826624168691549
0.786650514459481
0.807331039122925
0.789273340082831
0.816923259871156
0.771948244749633
0.79133648994187
0.7762399838835
0.781764489686986
0.764412041364293
0.776105928146803
0.742736592151978
0.75238489254634
0.750494684123912
0.765659409249437
0.733884378669057
0.757238151734153
0.723342706640687
0.757757598935249
0.71944094209839
0.720969229628919
0.712585302009324
0.727487148347943
0.716930720099215
0.716441755545499
0.702135684903987
0.722897754128808
0.686266231005759
0.692583178420083
0.683893059881312
0.699464798879596
0.669024133521936
0.68826967961873
0.663567894585665
0.678102361362898
0.654220635382971
0.666978244809473
0.662384454318697
0.661129873453436
0.649218868782976
0.660069065718107
0.637970157344088
0.668148029541088
0.63654822938454
0.64860504122944
0.63292746054994
0.655022765106815
0.623416600551769
0.634520650396887
0.612308308920108
0.62608418284019
0.596825097425868
0.616072368403748
0.603433337708097
0.605026514288207
0.591271796717487
0.628958746247566
0.600517699336776
0.605391026259894
0.574779235417832
0.602074360271894
0.587508022542327
0.592070933681995
0.563070273699059
0.601094011811791
0.570291092337239
0.576892641840792
0.55839176482979
0.562910595373138
0.557085583559482
0.558288580919726
0.560611749392817
0.562964314214223
0.542761745231025
0.559832919735478
0.538909157162818
0.543485325612826
0.523010054773927
0.544180545110339
0.529680649842973
0.536133930059883
0.531385866780642
0.544824921704016
0.520464006465416
0.522572139346208
0.499364163620679
0.523689943000284
0.503051954880841
0.514165288907444
0.501406742299651
0.50387202337339
0.497920818696749
0.503350790035134
0.500961495009434
0.507348818245939
0.48547308276615
0.505037255437131
0.487395248359639
0.491418513991262
0.47830646488988
0.484465268312389
0.467520156558436
0.479102211869828
0.466472035294177
0.471600380267309
0.463810364843796
0.470523502722841
0.470484039137685
0.469370526341688
0.450236665322063
0.464680431132638
0.457604772739994
0.460326280007157
0.45198616128393
0.474971975972318
0.458979830472256
0.464974973032381
0.44480437113011
0.457217117027541
0.450882257178099
0.454163200365354
0.441352239999472
0.446783775165187
0.442858335313412
0.441696935014062
0.445602789614002
0.445702628897322
0.440820336383959
0.445502353099365
0.438301410508577
0.444139204893241
0.43721414050662
0.449775018284991
0.43834757854404
0.445890524008282
0.437627942327372
0.443120796517812
0.437824970378053
0.44680129374333
0.434517505153831
0.448957420906426
0.439799992815999
0.447452202158771
0.430852464964761
0.458606037911586
0.447109873095286
0.456501021311063
0.452484809412255
0.460213912931495
0.455405169101144
0.46238255539734
0.45427836693712
0.472419084122247
0.461277350295922
0.464462938608736
0.464724378423044
0.468928899090491
0.475905064605121
0.47944202490127
0.477543848168175
0.48675422621157
0.475889331520687
0.484981606724605
0.495497660245692
0.49503050281753
0.47960142606031
0.50297717942619
0.493778822191919
0.505890951944767
0.495984413389897
0.515160437649321
0.50240720649031
0.519419789617967
0.518346990137288
0.522963281027986
0.520788541410297
0.529164834117244
0.525598346292364
0.54814257278447
0.532970026585288
0.556329124392421
0.538686103669146
0.552786790501629
0.553664908307631
0.565645267864539
0.557228238598382
0.577520758915592
0.567760175704952
0.583649777682813
0.574072982571149
0.594209288793703
0.579049274627755
0.613538935294579
0.590471561419891
0.608369510921331
0.598929715265506
0.612107122918168
0.602281430039784
0.619641693814077
0.610564000599021
0.631078936241576
0.620772438213654
0.634100991297696
0.618247505350716
0.639942971304116
0.641064963851045
0.644016438126183
0.607364129224982
0.639036751919231
0.609588262684457
0.62345573749019
0.614822804272323
0.633621938337773
0.619715834998081
0.626922755683633
0.61923799383808
0.614668042833487
0.609931184651797
0.616086010034219
0.603607307528518
0.611310862565401
0.61305888789197
0.622967997895859
0.606950695469595
0.624190300665436
0.613415106014897
0.603747141522649
0.599860691921636
0.610567793234487
0.598457933148924
0.62297914241808
0.605569829282345
0.627034786511536
0.600366787752502
0.612747639379354
0.598681602672348
0.606430370835967
0.600528973553422
0.616414406389263
0.605907582497496
0.621366849526147
0.604763166312324
0.615120841744713
0.598980852488204
0.604195052112576
0.598786617951288
0.600582025341004
0.588902654772582
0.598698210637492
0.600791307391812
0.603465843166616
0.58853439563055
0.595787005329465
0.578398363849759
0.600659420392985
0.577634905759483
0.585536894535344
0.579574935127681
0.594603502406962
0.58150338607155
0.58772915533068
0.568781816494389
0.575102052323038
0.561030422696588
0.571477079200789
0.553302885056767
0.554476957218179
0.54889860233045
0.564034449139201
0.540611039825506
0.55176025519664
0.533195076602197
0.536403586574957
0.52732521232348
0.528702057420226
0.52053142119332
0.523665289107564
0.499258617756584
0.506893344538363
0.503631067727396
0.508457914111601
0.489438874222474
0.495280976729975
0.495068419936871
0.505448485452642
0.477378294786675
0.490040545691906
0.483295236822392
0.481000571888867
0.477010744240172
0.47511561532922
0.462457954518412
0.464441568305326
0.459725939189104
0.453050100649291
0.451068617387468
0.453147143834712
0.450527646000237
0.451485115942229
0.446230267047761
0.450330906799985
0.436870426452498
0.439280024997704
0.432360163228234
0.437511298145961
0.430598771329278
0.428187763535227
0.417428731314597
0.425019987273535
0.418905243841981
0.418289440780572
0.412758568010175
0.422697070145756
0.413030443022607
0.412397114926819
0.40679961185704
0.411658425110539
0.396513434774813
0.403055039364654
0.395811414050604
0.400979093952308
0.400176780150428
0.399804931238083
0.390957595901321
0.403766458711272
0.392783265119071
0.393410321122737
0.382436701678792
0.390603491741596
0.385514228476928
0.384428503085659
0.382230488571609
0.383762625349716
0.378833433215341
0.386896607725763
0.377071429168531
0.378104633699289
0.369281742597758
0.378815290228111
0.379221243745206
0.377665908134222
0.368804138986681
0.373913899107607
0.370085968339329
0.368247653955644
0.362827086090389
0.370454470686109
0.357504990481105
0.362864379853722
0.359618317189783
0.363785724747208
0.357145898937268
0.364729520440302
0.360665639942181
0.360530911962799
0.351218714312049
0.356692357986825
0.349532197122308
0.356579049736385
0.347643090824918
0.346856086955648
0.346555963494309
0.351548104076326
0.345627676377245
0.347979863587683
0.344184002375774
0.349645480383211
0.348019250712457
0.344540316567119
0.3328746448777
0.340720674838205
0.342921094186486
0.343798440727785
0.335807164166285
0.332918576558942
0.333937278353798
0.344716717076191
0.338665137610698
0.339232736357203
0.334325349084962
0.333743004171869
0.330770777543434
0.331213161026319
0.330644028511208
0.335608061351909
0.326797983124805
0.332641078734533
0.328389765646839
0.331922944940887
0.324556193826945
0.328356660132603
0.319580652976232
0.331006735915999
0.327825114697328
0.326399759513869
0.321684889594421
0.324858234353529
0.321004191988682
0.327840604302381
0.324267966931593
0.321187924127969
0.319325989045834
0.323473894310142
0.320812495286432
0.3217542709989
0.313767898803338
0.316781144043869
0.316517537568308
0.317999932523807
0.312005609792772
0.314339176604081
0.313692498445552
0.317107393201605
0.312508609407069
0.319686304076772
0.313851375934266
0.314211957237498
0.306612782652224
0.309800616474628
0.309474795522216
0.315870224541939
0.310179253767959
0.314263278405992
0.311143476317092
0.310933780599894
0.304176643198705
0.308658672796316
0.30670433808592
0.308666759541608
0.304825193155715
0.304552236891594
0.298930416478834
0.306545826363808
0.302178350026261
0.30617089377663
0.303571004736094
0.300720885391341
0.300356727425307
0.306123957174929
0.299228575235252
0.303229888376982
0.299003208386023
0.303472259607412
0.29826663039398
0.298531795411657
0.294801088439338
0.297218737647704
0.294128425105821
0.291699361932736
0.289991871059679
0.293259789602546
0.287932537211145
0.290371074495171
0.292098957489692
0.291022955823653
0.28553857743408
0.291516228367525
0.289650655463813
0.292641352653751
0.28421989206853
0.28528212767983
0.285330381976178
0.286595396235701
0.286010292770065
0.286714296075724
0.283850314812989
0.282116306649614
0.284126881814554
0.288859469276977
0.274802993317807
0.274919052720339
0.276443989118482
0.28386830465867
0.275884834046171
0.276318422454644
0.276286321163258
0.275708460558222
0.274611297292761
0.278201776634911
0.271548415304273
0.275958543611508
0.274636260887871
0.275577891612883
0.273515367385286
0.273289094208447
0.268912439100856
0.268125883565692
0.264458817251037
0.266071872121939
0.260855865046133
0.26585788944403
0.266126593521997
0.265168678163164
0.262099035197144
0.264887874128438
0.259381430518766
0.262363698751652
0.260416029003291
0.262578288556946
0.25652950420351
0.259242416449686
0.25815648255227
0.25770014074415
0.253291679502171
0.252170225310608
0.251291547467275
0.255656349765475
0.25142155837622
0.253231896796029
0.249313291769742
0.251021984637766
0.248248641627502
0.249957923555105
0.243736640957708
0.240999302579873
0.243662144855459
0.24519539774029
0.237029639833626
0.243442940998503
0.239877216855705
0.24404957928485
0.239358247692378
0.235112803366508
0.234611004506512
0.235513251700033
0.233332139727891
0.23587640940809
0.233647348322897
0.234470431015088
0.23335076161622
0.234448684597123
0.230455030802847
0.22692422657573
0.23019068720653
0.22824081029782
0.226095556472175
0.229246017448493
0.224014483437402
0.225394347899353
0.223146078623331
0.222382334263345
0.224518803536912
0.224782828516062
0.222100977743017
0.223827934290403
0.220448297442006
0.223146342274564
0.215684272682911
0.221244522252797
0.219331230513218
0.218842117433117
0.217776060697583
0.216545085673953
0.212657043162549
0.21382492775092
0.212449661520173
0.213167854071813
0.213691031166091
0.214363333320022
0.211696590899033
0.213632234706782
0.210847920918535
0.211978899031888
0.211148331394952
0.210756697335809
0.208920395116376
0.20627682926791
0.20697803726668
0.208849327075036
0.20591024940209
0.205189505553146
0.206787790021342
0.207092122140673
0.201535366086075
0.205554301026278
0.201468701327324
0.201668045699002
0.201910977950363
0.203670290752099
0.199867838599575
0.201325336619388
0.199821506756005
0.200228662000243
0.197768781373795
0.197562738637741
0.20005770134064
0.200262135496867
0.1982747973066
0.197096328661132
0.194752747970961
0.198669270962652
0.198233444834052
0.194957382348732
0.196107711106512
0.195608925169311
0.192144708028517
0.193156959405702
0.196714578506478
0.193799518955254
0.194226381383568
0.192460761732858
0.192363702243093
0.198008814074421
0.194826300434337
0.189867702554506
0.189660753009032
0.191854754770866
0.192092908327215
0.191708406182818
0.190838246133684
0.1885850278688
0.189282450530674
0.185524127629128
0.187669361720032
0.186739430316354
0.187761392577515
0.186992020233834
0.188757707471212
0.181774216472831
0.18329562874253
0.189373977613636
0.187081203789997
0.182808306888991
0.185158799586796
0.183790547757029
0.183597772153968
0.184235972948311
0.18224272067424
0.186303664675863
0.182643231774224
0.182797548071204
0.181481306128731
0.181686458539417
0.179627872394885
0.181055250332617
0.178607654268772
0.178279788609544
0.17845498858177
0.179432963154854
0.179666245456944
0.175153069580072
0.173779216147711
0.176149668937152
0.177856945241784
0.174251761624137
0.172358154389433
0.179607323320094
0.178476736317032
0.175830118115652
0.175782675803543
0.17324982323209
0.177484580447246
0.177823275561973
0.176592383736377
0.173363307687064
0.17029408884753
0.172584035914734
0.17146755224149
0.174435451899205
0.170037531413563
0.173068530394354
0.172487044975772
0.170424092442733
0.171551585009749
0.16635136933503
0.165751022679377
0.165086421719893
0.1709564313251
0.168744986082728
0.171707478060614
0.167737006111213
0.170062031775712
0.16611519634079
0.16843708848564
0.167908464801009
0.166627095839375
0.165861205369434
0.160499745273408
0.161328996083469
0.166961279215407
0.166637800974164
0.162560553697896
0.163952193463926
0.162682406425136
0.159146232498685
0.160890003117347
0.15982843314555
0.159259829375645
0.161431423753266
0.160956857276428
0.158062152012679
0.159291616270881
0.154885386365713
0.156431824873135
0.152932552176241
0.156099696722586
0.151925729076499
0.155751347826846
0.154751456753308
0.155205700356612
0.152367010303273
0.152082614608024
0.150576293338012
0.150842044786697
0.151536735798385
0.152590307706044
0.1466348644905
0.147828713910963
0.148608828014361
0.147201920364523
0.147866930400862
0.148297144739098
0.149459372701576
0.145105547404117
0.145575920777776
0.145513615463363
0.14274163604588
0.144847968597867
0.142849979323286
0.144887156397972
0.143214774230255
0.14251576528873
0.139142057362999
0.139248304900501
0.139966104295467
0.140389986929918
0.14065058247959
0.141155777467392
0.138615012924961
0.139241172140033
0.138956769584715
0.137491635594458
0.136832480081572
0.137377569562102
0.136046802370748
0.135594679547417
0.134447555765566
0.135798271142355
0.132296783274118
0.131729806171407
0.130479751571374
0.131080763332979
0.130801030726961
0.131864836195685
0.128169850474222
0.132377198537018
0.129969293109259
0.134252135833691
0.127259714512034
0.127939476504329
0.125894167830414
0.127705357009382
0.122013092593255
0.124775089250069
0.124946452636828
0.125233772100288
0.122391118365011
0.124962085453036
0.122984458891286
0.125190404616996
0.120735443180453
0.121910950149814
0.122872109191776
0.121863613487954
0.12032431336522
0.121216425754989
0.117324594133478
0.121857805131696
0.120363338143231
0.120153812131637
0.119766523369778
0.120002058069919
0.116097423492899
0.118928091931926
0.117618337222477
0.121242527225923
0.118522861297597
0.120119647318879
0.11638082407879
0.116040330800459
0.116184811408788
0.116614953641678
0.112205966350974
0.115736999112336
0.113310615797716
0.118392205646058
0.115825836377327
0.118119577631318
0.115709605547089
0.115900920586731
0.108232593308521
0.112651705716143
0.108581269027918
0.114771252552946
0.106180715082334
0.113067320755845
0.108533183331984
0.115358721734304
0.108322544503444
0.111638044221752
0.102408674504084
0.112030933178618
0.110068044347178
0.113470585427415
0.10506987813688
0.109564633202087
0.100716363954053
0.117950026679826
0.104941755077476
0.109992857774969
0.0990755648690701
0.112741456876439
0.0933223281373632
0.104979159384571
0.0945838096023383
0.106521711303451
0.0992479315185931
0.107238180957076
0.0973799121274388
0.105421368514094
0.0993457659809869
0.114139135345831
0.0944523722238154
0.108899409608059
0.0985537595313231
0.10757346911457
0.0921751416200506
0.111936997324006
0.0889667487725218
0.107968720712323
0.093236947429303
0.106746271709796
0.0882765811507397
0.103369973594101
0.0859186276207248
0.108823917241493
0.0850570719884908
0.111180427793014
0.0892330577581437
0.117271835887745
0.0908804008519662
0.110473055965382
0.0831882613558606
0.104268830107377
0.0853755704452005
0.111948000494305
0.0942833428977597
0.109220354683362
0.0905861766278044
0.103100239846169
0.0974521114740538
0.10186013572787
0.100233369496087
0.0899170371609555
0.109936784409049
0.0860105715347166
0.120787069748405
0.0763312611526669
0.125387167747565
0.0776306481129436
0.120569348942995
0.0748027253318729
0.122004764034206
0.075585322360524
0.114957042765784
0.0856224751316926
0.107113652014845
0.0902348977174966
0.102130179791096
0.0985948787026445
0.10053894164473
0.10040927892365
0.0961328522617158
0.096343773163478
0.100947893193937
0.0938538378358386
0.102648685389062
0.0952894419503094
0.100147750819333
0.091352935343556
0.100082702934038
0.0931459233279952
0.100884424087827
0.0979382304589105
0.0990872018060705
0.0943493133520208
0.0995284815526964
0.0962360591187614
0.0989769469609428
0.0937386733411087
0.0982905312943851
0.0953875461132341
0.0997866610763388
0.094225903950445
0.0985869365252113
0.09517502804268
0.0971983938056441
0.0982748526495083
0.0995901991324313
0.0953339775082725
0.0988039349706898
0.0959039040249114
0.098231013744545
0.094565622887456
0.0996650029527548
0.0947372132461175
0.100806429345181
0.0954639556613273
0.0991794680343154
0.0965884702677619
0.10185978116801
0.0967032870177454
0.0992627207216544
0.096916528868902
0.0977345936458568
0.0964821995955477
0.0975320252197651
0.0957431509475144
0.0978537605330404
0.0958009265950775
0.0978757542715969
0.0971913598543811
0.0998509555386874
0.0961881781790006
0.0990351240325564
0.0961830847662256
0.098893366813023
0.0952857860743032
0.099060633565805
0.0982878604878662
0.0978943095774708
0.0984346296199976
0.0981416783917119
0.095318443310984
0.0991626333548162
0.0991848764714091
0.0985746620642888
0.0969263536941255
0.0951130092587896
0.0972488480400311
0.0963703353495173
0.0986518673428821
0.0985640511397999
0.0969452197316834
0.100906870268961
0.0955547079771679
0.0976486936769154
0.0989732715627318
0.10026792563808
0.0980587622859514
0.0997079253823284
0.0985486682936629
0.099711594009649
0.0975574290591534
0.0989356787757857
0.0971688971078589
0.0967080091624879
0.0980001170806165
0.100075576145812
0.0973185436738153
0.100944872335814
0.0980402006607648
0.100280312610567
0.101337638511245
0.100736613275025
0.10021245984819
0.103027114848756
0.0992248095972248
0.100617941555433
0.100046709275908
0.102363089748997
0.101639247242737
0.100134992019231
0.100464413850908
0.101973201443844
0.0999501245005329
0.101788873003536
0.100349896798847
0.103178701030439
0.105407694810055
0.101286190902527
0.101742120309232
0.101969693880257
0.0999127340616317
0.104836569570125
0.10224404749302
0.104771375560866
0.103214097977161
0.101782925699361
0.1020097508994
0.104837794550077
0.101524771054081
0.102005713082267
0.103644925781153
0.105307169770521
0.105165677475867
0.103274945471004
0.10416023378566
0.105436157571893
0.103844967184338
0.104886581167082
0.105815024834202
0.104952868745203
0.105381547737324
0.104641111367713
0.104379896489535
0.107637555869082
0.107418658372534
0.108368201425841
0.107656464067112
0.106163106135297
0.105557132514607
0.106448756824185
0.107176105248888
0.107023426993503
0.108985859011504
0.106437663715649
0.10594682339915
0.107009913172465
0.109811619994646
0.107551534767287
0.107747148681953
0.108077840174435
0.111966520632103
0.108203635330318
0.109021834174827
0.110787959171367
0.108525721728861
0.110104412356915
0.106642352478324
0.109280791188021
0.110072298529095
0.112332502439655
0.107603082228481
0.110553639680303
0.111926458299594
0.11020360370876
0.110444692419957
0.110968494811238
0.111529834232065
0.110491074715346
0.111346331984946
0.110700055849035
0.109494375631412
0.112506236096978
0.107611505589732
0.11067380538979
0.108925686927646
0.109280384510857
0.110512244569774
0.106425014172887
0.109871220814959
0.110534681878731
0.108847850776819
0.108682104855449
0.107054121759483
0.107489523683267
0.105910276642428
0.107465379473246
0.10847327155382
0.105552023322953
0.107906301812286
0.106891792615561
0.106703360802052
0.10795806801178
0.109539041526389
0.109274954467307
0.106706675859948
0.106187602482399
0.106456811082154
0.107692918583187
0.107777535562472
0.10720159755636
0.108714389237504
0.107176816087744
0.106282247757431
0.108840671530808
0.109465659775557
0.10430219434715
0.105572578553804
0.106312134100832
0.105545176244364
0.10404761886989
0.104023380050209
0.106046856674342
0.104564017841455
0.105919868048941
0.106618683996999
0.104261742991969
0.104063002700452
0.1051697582434
0.103868866486242
0.10399455442903
0.103395220852186
0.104176716331341
0.106357426184055
0.103333593544477
0.105155315746703
0.101445985632574
0.10428817230011
0.10142331960563
0.103399043392113
0.104409233547842
0.102747118635232
0.101338564092543
0.10423420165071
0.103955247738086
0.104974152007315
0.105283131906823
0.103863401557102
0.102296566584156
0.101530170163167
0.10245807618986
0.102020120105938
0.102368268777564
0.101630990559619
0.102321279244346
0.101396460131344
0.100871694184765
0.103583546497738
0.101168988259971
0.103610021268979
0.10256545719304
0.103589932861396
0.101133530925957
0.100009446352867
0.101206816626712
0.100942780160023
0.0988506219206895
0.106010641301476
0.100285871904368
0.100737233489771
0.100442392872964
0.101408562040287
0.102197438034912
0.102921427150278
0.100416410060739
0.100248881768219
0.100635250000858
0.100323583196989
0.0983816903535176
0.10019625581724
0.0993890086641695
0.0986637833951084
0.099927384820889
0.102608552526809
0.0999198481890752
0.101674472334075
0.0977209194312918
0.0969671748803178
0.099376924363703
0.0996225450513291
0.0981487211577092
0.0966756245703969
0.099309381329186
0.100235782797998
0.0988006165600956
0.0974783478567847
0.0964616102319535
0.0963543205399289
0.0959865113673603
0.0982934964583979
0.0949284982568925
0.0935501408059218
0.0953359291378623
0.0946453481320312
0.094952841609975
0.0941540596198764
0.0933264419747797
0.0930587874605168
0.0943382587321312
0.092278048150194
0.0912899775540916
0.0931387549499224
0.092828233803193
0.0900660340835248
0.0899463421582805
0.089963232597247
0.0938242924822426
0.0921015618761615
0.0888356655441524
0.0942420209050528
0.0871085926306121
0.0928752803586768
0.0858401661743097
0.0903396711729292
0.0869480868666593
0.088955176054675
0.0883752097569774
0.0901463449920337
0.0856587578868407
0.0875552521122983
0.0846572445442112
0.0848938794230768
0.0827852501267739
0.0857395998241857
0.0820839173584084
0.086192034955328
0.0856086982524699
0.0865906156731574
0.0840594791801656
0.0838004758172122
0.0821900875083849
0.0853330977709462
0.0822056877388758
0.0894901302775794
0.0816091217455988
0.0850088754729053
0.0829489025513579
0.0815361277104053
0.0836724963431925
0.0833532034147035
0.082233171398209
0.0810987483000542
0.0817749501884247
0.0833512895884275
0.0818514210140975
0.0798397651374019
0.0825260288349728
0.0805512594756827
0.079637087752155
0.0818860068428242
0.0825522786342877
0.0807876177378564
0.0812738125152574
0.0810837081380661
0.080818613441765
0.0798474949093503
0.0794969881468593
0.0804933659757116
0.080770781795998
0.079038731060215
0.079851672253885
0.0794319639943219
0.0813394260932587
0.0793636157296876
0.082906276913315
0.0788453516136472
0.0789069038503275
0.0773829698766836
0.0817436901585897
0.0781440565904387
0.0782559916373353
0.0794515090237746
0.0776110496220161
0.0810015830258836
0.0784022347331686
0.0799643300633153
0.0776774665181549
0.0777204764711909
0.0789288274495763
0.077169489528015
0.0763066784991172
0.0766494532331482
0.0804418251893976
0.0780223263979613
0.0804680969476467
0.0770431735696093
0.078480576748575
0.0757521793824002
0.0801896849784626
0.087222254054773
0.0725424650109213
0.0804839704707156
0.0755861723439917
0.0803038048885346
0.0746871381350607
0.0791318766678711
0.0744502703976986
0.0774607278080253
0.073489918288274
0.0771829638837899
0.0724059057014499
0.0769703432343818
0.073610933281873
0.079108750013259
0.0763197019040827
0.0784128672956116
0.0720598600545077
0.0764902975051465
0.0735801333876132
0.0771588261952111
0.0797243906901723
0.0759984043833068
0.0721324236104778
0.0805267834146294
0.0681643790869756
0.0853854805790794
0.0699594750063314
0.077205156947713
0.072579454114135
0.07523012574823
0.0728641880296788
0.0781465497634114
0.0727385955627754
0.0772931090158904
0.0796559537311376
0.0726897404769948
0.0772252659388926
0.0733947236803628
0.0736048659700782
0.0730225784314357
0.0742360239023333
0.0760032360535561
0.0725723068612614
0.0746480201714899
0.0702215855752252
0.0742551498848702
0.0731054419831028
0.0773445453172601
0.0739715996099972
0.0776226066398451
0.0738110730924428
0.0720039869766558
0.0705758980409571
0.072809693599533
0.0720997432203859
0.0787134169943882
0.0830586462997327
0.0666282520219618
0.0773014973614697
0.0713998018694001
0.0763705525462058
0.0709070428495803
0.0758394359339323
0.0746156489491062
0.0742496187686066
0.0736428997535816
0.0754957715628757
0.0730147491940356
0.07474035124731
0.0729947436175091
0.0732309067796857
0.0747428343772318
0.0711958591189622
0.07155248807745
0.0684516628944872
0.0765526011369673
0.0703214110228067
0.0804187121426637
0.0771884237048824
0.0735001717170729
0.0750114128202827
0.071164756686335
0.0741869898620937
0.0720223060040144
0.0759930194244635
0.0716602779479334
0.0755204758487706
0.0692311028092281
0.0743460408017429
0.0711852998662406
0.0748760934292416
0.0716450994144226
0.0761183231394705
0.0725313426319613
0.074780094878797
0.0698757080129877
0.0793875634838473
0.0696590999374192
0.077539969106512
0.0678642286675794
0.0808370287920406
0.069508109143239
0.07927917961064
0.0680175361710542
0.0879138222402418
0.0783305651610656
0.0678186249482179
0.0819578338320887
0.0704650782712049
0.0784867906723852
0.0715798045772861
0.0758500700216747
0.0773505924218065
0.0747915579536367
0.07447580543798
0.0763555557358274
0.0719081843830158
0.0744288887972769
0.0747328162861776
0.0778837737538487
0.0832606897907442
0.0702919793721177
0.0772672881147708
0.0758786984444806
0.0706409395503624
0.0883313263400737
0.0697487729407471
0.0827982887362667
0.0737933773909659
0.0772201819963667
0.079107026445771
0.0786930597070799
0.0756898959885093
0.0816317278870762
0.0773789491381434
0.0730538029355588
0.0793222623518546
0.0743306585124682
0.0804363208608198
0.0787502452479059
0.0805944583771262
0.083715162232402
0.0769902412689163
0.0819354429588878
0.0823523427757711
0.079110708834584
0.0790895554429624
0.0808412572592347
0.0807938929009506
0.0793725992953888
0.0863535442190609
0.0819732274754763
0.0854913036532077
0.0840020922087844
0.0789884095682432
0.0848142028662286
0.0817830748822242
0.0850196075414661
0.0839971564462435
0.0781623880160247
0.100103850144497
0.0747477160513511
0.0989326555331592
0.0738935135790231
0.0905899438774954
0.0765546913281022
0.0935684310841413
0.0765791538601889
0.0947429194738068
0.0789861322252785
0.0883114102926942
0.0846569108554147
0.0860040275100872
0.0888988860002242
0.0853846657861873
0.0918730291806201
0.0885665151953571
0.0885664307807452
0.0888062206539662
0.0954025138700839
0.0833485167565769
0.111224813914019
0.0903321623256123
0.0874539076701586
0.0968836060251237
0.0873312787847829
0.110117726072438
0.0878193844739724
0.0959507259855955
0.0922827321484451
0.0906472343109454
0.0963965877106987
0.0889255567787037
0.110380051636934
0.0967457799192553
0.0943873647701056
0.102696828642014
0.093250242898349
0.110682773453832
0.100900290534575
0.102751897474255
0.0983605606916992
0.107939882486705
0.0996776060677581
0.110780425679151
0.113910122598048
0.0977796968881526
0.127956810677805
0.10242819634259
0.122499192370749
0.104894924648684
0.119629107946638
0.113314922861807
0.126594738809005
0.109784171434117
0.124013073811834
0.111526822513151
0.136660874071972
0.109789596271611
0.129098816208011
0.122278156979855
0.127808652573174
0.133720406251422
0.154638105812096
0.129216682296981
0.136692851775853
0.129128172974741
0.148773880042305
0.133455164505491
0.142855983436167
0.143222638565461
0.141356150959759
0.146514866881111
0.147252084984189
0.14890711769455
0.150559149568654
0.145756435923873
0.158055047165969
0.149503135084815
0.175876049223742
0.155384878840609
0.179683643718951
0.15513079495703
0.173838276513559
0.15990294049867
0.166535626059826
0.165015395808817
0.164393739403324
0.173656273725508
0.171551750585924
0.173326634550705
0.176843971533805
0.179541229980949
0.189738934318047
0.1690191246424
0.203095132365833
0.17364773641784
0.205133209021124
0.167945077033525
0.259133794894283
0.200187022967939
0.203437578891282
0.219289629403275
0.198493441474165
0.24468429462764
0.222188254669997
0.233081295642645
0.236829761396144
0.23993415179553
0.243372624781812
0.253510104215292
0.259611446432877
0.268701798553528
0.272489992993767
0.278656509722841
0.288269300718928
0.31338473904133
0.303629454781719
0.310738404477618
0.303817728621043
0.32712935549525
0.333571105341138
0.330775148331896
0.336666561039669
0.357821555425784
0.328578970784614
0.395600438668298
0.363751843532014
0.392593816548915
0.37598963273544
0.404829142578183
0.401053562280216
0.408384694713301
0.432235970516925
0.407438921009166
0.441455189661329
0.434223995134221
0.460119321686064
0.449354446734759
0.476703921579296
0.468491955388382
0.477087494310168
0.488925987256958
0.489014954442903
0.497602996590364
0.495717342959689
0.512344382532016
0.518459438867438
0.535364250316874
0.530504652651369
0.499144099103475
0.55345692795296
0.51681295863485
0.533817958216838
0.512519503008253
0.556796421558583
0.542092674141168
0.538973701104146
0.548510109197718
0.524569279964102
0.5420010078115
0.535325559268733
0.538636492981799
0.540697267871906
0.545963656502869
0.541450081548335
0.538371394496162
0.556300201474341
0.51064133942755
0.603735442018752
0.523639404392893
0.54754865173415
0.533583449625955
0.533502850573777
0.522899785993116
0.545942916381275
0.530592809543774
0.55025564866827
0.512190784056451
0.52122010251198
0.505181245960413
0.501041387757017
0.497624770809172
0.491254087838087
0.493781935672096
0.477373979747129
0.468622866081246
0.473916425770188
0.447831834399331
0.507898180567821
0.450337556241916
0.448239750617857
0.439699555110093
0.434512155086203
0.432347748044218
0.432648545137718
0.426359272651645
0.428631914231121
0.409820088514264
0.415391267563866
0.407821013111409
0.407165127318774
0.407828955810984
0.402307103297215
0.398160243562371
0.39615437954175
0.39131356993882
0.379616458816457
0.38225761852759
0.38177447157025
0.379509793713325
0.383037779121646
0.378081860760126
0.377306535811758
0.371222733008817
0.370556359988614
0.373511630119995
0.365619239615504
0.366644008158608
0.362473500380438
0.361324817386212
0.358646368803559
0.362352314694928
0.355006867878802
0.356514992134795
0.360061715771191
0.359363395835581
0.349090811260978
0.352321971673027
0.349531266669354
0.353400289177339
0.347019603333542
0.335830569045751
0.369449620454356
0.337067057056083
0.353569080644682
0.340732887555407
0.347714943633011
0.334604669941805
0.344416505546944
0.35177204688013
0.335372008315887
0.334872996964531
0.337984818462637
0.331143647359784
0.343960132466578
0.332241648946274
0.338406250024872
0.336301737120737
0.310080010738914
0.3762868921187
0.309051230062561
0.3727892179163
0.32732139726825
0.339559254371981
0.328302533030825
0.354563204002804
0.330557575177454
0.331913090895721
0.337290115475223
0.316152755355686
0.341945835287526
0.327302831019017
0.337228895309968
0.331062463977798
0.330344724603434
0.339991503563572
0.331861608191733
0.329292806823942
0.347014443263715
0.321485667173624
0.332822078040544
0.340118575891378
0.324079009213923
0.315028116623507
0.306597900197688
0.315683431917577
0.313272968419759
0.317232484379353
0.320143855741737
0.303899055950249
0.310163825256855
0.298738733435281
0.313194125976855
0.29574723572106
0.311392153413603
0.291986749760323
0.30136896774888
0.300848287633923
0.287249275065245
0.309954562101388
0.287257186381609
0.310845590246038
0.29106613771698
0.29625517158337
0.278581493779885
0.308239019683239
0.287626832908321
0.285301281703875
0.287486704461665
0.280086056070014
0.28528126768853
0.283141053557284
0.269519591002234
0.289181074093398
0.273687538944596
0.290373351508181
0.279593582408317
0.277179560759017
0.271511833486668
0.265511866083007
0.26814594706864
0.270320712311979
0.264638723957559
0.276426822122057
0.249595351526717
0.289649341617097
0.261311005205934
0.282704009065246
0.280205552351624
0.27403397910638
0.277390760475301
0.285237933410969
0.279670444813152
0.300576754693927
0.284561601680474
0.299245921793541
0.280165625307557
0.306533748412876
0.303033068278564
0.307388934990966
0.308651429988501
0.316091767465111
0.314219501801907
0.326977806295028
0.333059211198262
0.337820561089944
0.338972484922024
0.359443535642302
0.347188292752323
0.377403483078058
0.372524180917494
0.373398259678114
0.411859249993106
0.385123862476118
0.426015353193328
0.412115636972635
0.424618064760807
0.435641508446765
0.435069447030582
0.446972998621612
0.450351414823899
0.475174745007487
0.4714878709083
0.470760114385406
0.484021901814376
0.482082717297077
0.495501684712044
0.490036886844434
0.528810391452024
0.475179113156924
0.540659432189899
0.512881373106537
0.521213534470586
0.52195302058805
0.518860109143447
0.525316313781431
0.520828126511517
0.530857106726357
0.525437420781331
0.546003341999431
0.542723631983807
0.539744375803761
0.544679395507811
0.542411852590203
0.548784814830317
0.545707974739356
0.558528882068522
0.556512622921736
0.55161536004181
0.568356998609025
0.561394309158336
0.579377600837058
0.593874014510654
0.564700588395747
0.586246940781495
0.576811486316767
0.58870243746319
0.587476170714293
0.593520342033956
0.602817297879099
0.600323038813488
0.603145597910384
0.606494512004799
0.602589509968361
0.61675923466937
0.614455894351247
0.625538653850907
0.612545689163094
0.635286837801175
0.611209238190545
0.666728593625975
0.634323264094913
0.637951449308678
0.640965550950804
0.637630848330699
0.635383026304855
0.638178794346406
0.65154158148041
0.645208090927946
0.64549205924933
0.640973666636254
0.640914756923314
0.642794080467464
0.647950623294605
0.642291527648983
0.644673891917937
0.639154568122342
0.63343549414479
0.6383029798981
0.634894200054948
0.635413553615701
0.630326700540229
0.639912576008944
0.626360305580601
0.623334909932677
0.626223331578772
0.639970708235921
0.635167436152486
0.624063590069817
0.623586202620656
0.628349451332166
0.617523163496747
0.625106573619209
0.615609124859295
0.626778896482997
0.633365391646679
0.624722897157126
0.641969609527264
0.643976905435019
0.656714464974739
0.657323161269506
0.651244112421642
0.654099092639135
0.671403074116954
0.671468756220203
0.674449587863334
0.674365835706634
0.67277429402756
0.679236715512692
0.682898025832529
0.680709955726993
0.679582002765095
0.685437244393395
0.688961404156578
0.689201813239008
0.675147488716123
0.670112698578803
0.67346838096196
0.665952224644493
0.676616974799314
0.676053922757912
0.684011260998754
0.66470521089847
0.671470544025312
0.657688466632132
0.663327552961943
0.648949459326711
0.64884924722727
0.651951594996705
0.651308011301451
0.644407735965152
0.637696915726306
0.637226796525683
0.639405565636563
0.63644521656113
0.63327900547597
0.635263682805701
0.639184500311804
0.632785201681874
0.631779789726831
0.631531763538521
0.62666019160212
0.627835397096321
0.627268695612351
0.626793834409969
0.63480930981464
0.625910259322552
0.634299478014783
0.636743455154813
0.632111690145203
0.628030999262883
0.62425483916465
0.624367974828163
0.624902272300803
0.625120277516348
0.622616826070777
0.62173777714027
0.616322878696495
0.620318834169893
0.620762039642115
0.616612670678511
0.613991992486321
0.612963113483116
0.612327405641392
0.604962894019266
0.600677008080078
0.606414210125207
0.606801181162079
0.604246734768716
0.602131256983922
0.599729097957023
0.596613305545806
0.592580056764193
0.599253588228712
0.601706194701689
0.594884469142364
0.594976942095258
0.595108089928484
0.584643819274116
0.591207118979756
0.589612404855487
0.583948756741864
0.588490530819656
0.58795142132811
0.57906714561866
0.581756200726969
0.576482340367293
0.57232821154251
0.56880269891333
0.56906573990802
0.566025443354882
0.563406091518529
0.554581190701914
0.549924784204274
0.549830529094133
0.544459534742299
0.535821227177226
0.542209335603474
0.533768458995348
0.528575806479591
0.524009047366556
0.523840074047462
0.523464650719767
0.519180533697069
0.520489687240527
0.518983032188937
0.516695106327088
0.512467750339574
0.510318769846715
0.513675529141224
0.51002315563132
0.513339491708688
0.514132558673376
0.510638644741137
0.512420016164828
0.514915753533683
0.515984816939503
0.521392238680651
0.518178059572662
0.525013500602562
0.520166100267161
0.527277358712056
0.521722172762431
0.526054978641387
0.529811788919176
0.533201167418496
0.534994627020465
0.536558962081129
0.534295652359769
0.539951593907596
0.538246989390662
0.543206220413658
0.540406600543387
0.540680476689164
0.543111927216922
0.544122011747265
0.544245288975034
0.545036525678181
0.542663571525125
0.542187106460411
0.541697372354882
0.541608673923782
0.54715642180187
0.540924203611915
0.53842588984208
0.540577546065883
0.537144706275884
0.540272693397026
0.53374328066115
0.531722935752053
0.534362194612902
0.531587316385422
0.530048290606559
0.52761322419862
0.529516380831182
0.526715581931488
0.526266569211544
0.529427092242769
0.521967711236487
0.522589161931181
0.522402243458962
0.517116294213453
0.511742251083074
0.515305842293639
0.512244454614372
0.509362174380501
0.510702730260163
0.508182322758077
0.501548180634547
0.500079945779177
0.497455921801486
0.491752509696641
0.490669586241243
0.485895002127558
0.487338154130738
0.481372210655941
0.482404059779795
0.477328691158646
0.472971916230738
0.471655924873792
0.470317884633403
0.465412787484994
0.463056099608265
0.459542557399203
0.4604635394734
0.460301938774458
0.458204541839002
0.45502073610281
0.460956166010825
0.457593738197446
0.457645392068006
0.456787747688908
0.457322507243857
0.452618906522822
0.456840856544877
0.453616622595485
0.443930383077745
0.446799172984063
0.44511266695496
0.440567470138931
0.434175832239159
0.429065573989719
0.423796728127526
0.414605841971858
0.411340765626734
0.405156217553821
0.40190518611302
0.398155710590033
0.391498904055891
0.387446909563698
0.384133362027213
0.384313776427607
0.386210555431023
0.389353083413484
0.391199106987779
0.395225031172229
0.40387716640687
0.410697713577763
0.417836299778276
0.427328054791646
0.440829663692892
0.453574817173474
0.467563125421316
0.48393595079047
0.496942409164945
0.513864641277166
0.53190669091987
0.55337969106376
0.571452665595943
0.589980842252962
0.614997011295054
0.635527283423572
0.6561152279188
0.679570098935747
0.711346856766817
0.729690622757016
0.759534247672538
0.779235492875926
0.804097162212141
0.822365170104594
0.859553450225797
0.874965141583341
0.898815975672911
0.91503483919657
0.933608279692012
0.945919443991006
0.966937861467715
0.972292588015022
0.977992645924707
0.990572406251483
0.99881729258802
1.00411748152952
0.995386709056757
1.01146238629585
0.992993883238713
0.994737168730001
0.987638573256772
0.982159012537283
0.972742678608095
0.965525222042519
0.966747989591292
0.958958828294319
0.943730012114996
0.93937513892227
0.945313519174328
0.945521381336687
0.948837288840369
0.940304029170978
0.944585297249254
0.940354378457531
0.958260941814619
0.954082549795595
0.959668373311751
0.978428229649692
0.978288122763239
0.998008942210182
0.999722428868569
1.01624273286687
1.02315377838873
1.03223236014388
1.04619520197589
1.05402036881875
1.06189606442365
1.06548861399351
1.06920857602453
1.06950052749275
1.09228079278044
1.07664930306419
1.10522380043486
1.10215945725206
1.0899080466007
1.10501752665543
1.09541700229732
1.09267502465534
1.10783159601517
1.10800215577226
1.11667582880062
1.1341103519986
1.11136469247474
1.13425399411288
1.14765964451529
1.15917524900762
1.15206848773762
1.17373835832875
1.16661510453862
1.172426636477
1.18410473253844
1.19115683742877
1.18923659276575
1.20319555743005
1.22768930397348
1.25685633703185
1.28107470716484
1.26352465485713
1.29256827869311
1.30076325502507
1.33909028615645
1.33857495522827
1.3543397246717
1.38648785297892
1.43684383010304
1.46482028371132
1.49535279844461
1.55549498400245
1.55011849847205
1.58482692936625
1.61302996081692
1.64777538527165
1.71104262037305
1.66123323755186
1.70721822268015
1.70691111305731
1.78228532370006
1.63655282172566
1.75241645819098
1.6769165252208
1.68963119250541
1.76576456840624
1.68276931949456
1.68770693993552
1.69628026302383
1.69066450898794
1.73160831321281
1.67480399650312
1.64871631637906
1.67679267097726
1.73128094271463
1.71457837925683
1.64930201339209
1.68328449955144
1.70026299330485
1.66757160415464
1.80044205993315
1.75262470666891
1.77451486381026
1.75274152810645
1.83104299309602
1.7820382537707
1.93564912421626
1.8935481666224
1.96226095926057
1.96785294819834
2.02249573537219
2.01696021307783
2.05175706966179
1.93326078606928
1.92511224014234
1.93362204357359
2.17692941051257
2.13221054371335
2.1561911817152
2.08503635364805
2.20647910486655
2.15785099574617
2.17891910216312
2.25151315399209
2.29465331060633
2.10629661515571
2.53509472419004
2.07490456589176
2.48572548162132
2.08051364545251
5
2.44306244380932
2.6108250542465
2.24670469912485
2.1436487432617
2.78196208871866
2.45607248606943
2.53487893407251
2.4817245275043
2.42516394535604
2.8482944099267
2.42049822178182
2.29421596168265
2.18129700463056
2.68699889732468
2.52746877285054
3.08831537184992
2.51668437594367
2.33961435233548
2.33060330620047
2.50704740794894
2.78818320252091
2.38715591177861
2.05323950538994
2.26847437508558
2.04147032301233
2.39310839719099
1.99327682789442
2.04682785900291
1.89163698631571
1.97447666179106
1.9484697835644
1.94997736651702
2.0189240066753
2.0399204226597
1.92006170024924
1.88342479585974
1.87596615749487
2.0357922766223
1.89490521431935
1.8523156463092
1.90776136317317
1.76292439651431
1.70925149606611
1.76050205771116
1.64991669046753
1.58698442028238
1.50218967708103
1.5206063078803
1.39111700486789
1.36151015519514
1.3100244623517
1.29099086338666
1.18676852475158
1.1502971280672
1.0940585607754
1.04868221075593
1.00790687486438
0.968442871135204
0.92335651430519
0.884327907946774
0.862563588353829
0.820297823959688
0.787228378861394
0.76315590729563
0.733143416558299
0.718525384207217
0.704329536977545
0.689800783446189
0.674099311603662
0.660699635876491
0.642865202606113
0.636928644648713
0.629484969651986
0.622831550068301
0.616321944057848
0.612300174513855
0.607242422695245
0.603488515879228
0.603670525735808
0.611466041929496
0.603033554855711
0.615551944310884
0.619897574631834
0.616609536324516
0.620292343815834
0.62704675020439
0.629838628621674
0.636041663392524
0.636680335939465
0.649865495609584
0.658355821593437
0.661156735171224
0.652591851888741
0.66488538142779
0.652252981735932
0.669006584029793
0.660856275384626
0.664106953118527
0.6610095766472
0.656828269192296
0.655471850542425
0.657794712724767
0.666558476416626
0.670650662215222
0.667731550300178
0.680210148512884
0.662461804795857
0.674202157775609
0.665963898208397
0.674256348005052
0.671957034231373
0.664670978779535
0.65676605849931
0.673799115073756
0.671059061860115
0.666385756689515
0.662128628910143
0.66105361339152
0.653244742000027
0.64650944922663
0.640126099032908
0.642576372835728
0.643943822894438
0.639078311120556
0.631691698550575
0.639246523257988
0.640770386800362
0.636400695798609
0.644906603309445
0.645746108945117
0.645744671939013
0.659030516773269
0.655694543542536
0.676654261575313
0.665057308841624
0.690527119983639
0.699339369711285
0.709248533805582
0.712793460040675
0.723488561543338
0.725218236550239
0.733180386640245
0.725499700442083
0.731882384959965
0.708020103925432
0.711573845907788
0.69433291557711
0.687576324190384
0.671475865962595
0.670540510750757
0.64505880063204
0.651146525928325
0.64314889780254
0.650990210442145
0.632843089927415
0.63177769886765
0.629036759980025
0.653309461752632
0.641277706785112
0.645430439929687
0.653395977870292
0.65937206383004
0.658097885774838
0.6661001508898
0.641551603605274
0.637013468250055
0.639670191523746
0.640677162479427
0.635740335288095
0.647623417550421
0.637543574688819
0.642970059823948
0.635493827440166
0.650256299024504
0.623188181881745
0.636664270556933
0.640664149956048
0.653332716121444
0.626442026963665
0.642522393537183
0.644347782701332
0.645526414293823
0.647952222218523
0.656468745603681
0.62164401693124
0.63222467315047
0.631103279001312
0.612999344547212
0.625171108206701
0.633741813190593
0.626179117290189
0.611438266310743
0.628718010320277
0.633665339370494
0.615927962746879
0.607877697343368
0.606458442726573
0.626479686455388
0.608997029439717
0.605190194261278
0.591758272502835
0.589552431835338
0.578467148152172
0.573659817306754
0.567693573018578
0.579675469165264
0.571040488731559
0.55714057772251
0.553392586951726
0.548299134530829
0.554167452172841
0.556309160030666
0.552911183752476
0.556014316279568
0.544321225904653
0.563461073528826
0.55462264607607
0.551204057570672
0.540771918650694
0.55812843524329
0.543808971196919
0.578834105523038
0.554888959699879
0.562602672516382
0.549051805441466
0.580102862792849
0.576029993400649
0.584500090177844
0.566313011458943
0.595879384736199
0.567630621992223
0.573890629544409
0.588024387868941
0.605602383750474
0.611263180967222
0.597508243094696
0.597618405255027
0.620646404756858
0.611589995268537
0.628436761019249
0.613143653486348
0.657400822163516
0.650657269730869
0.641199542063412
0.638894354568399
0.689557495894577
0.693764528258526
0.701604535489272
0.743352670872046
0.747755311732705
0.715556959685401
0.804229494809658
0.779655257333873
0.835776162352747
0.772925841941393
0.847135160018133
0.824299086145668
0.904166663175371
0.854410783437666
0.85852113975624
0.860425885242385
0.89430995560386
0.87773470787475
0.855171973928062
0.879825473753344
0.916635556734801
0.892005102395704
0.904455018659462
0.827875556241855
0.917987890868363
0.847252540217409
0.931985171694386
0.847550418074164
0.890741248515117
0.871435299461366
0.883299890267245
0.894384263028285
0.860608494548292
0.911189038869157
0.934847747131272
0.946889068813443
0.947464396404403
0.866820138290188
0.994455112896854
0.92171304928582
0.87152468275747
0.814881420069683
0.840435368607143
0.794829024326967
0.892553680510696
0.852932580075108
0.834961438463851
0.850830712680718
0.869926960410475
0.895272502250771
0.821091372654556
0.812870709655842
0.862105893847473
0.807984923713821
0.79507574468676
0.780205456516824
0.784640916600087
0.783950792284957
0.860849273517727
0.806454527131673
0.833273190109236
0.899721533877754
0.881065248087624
0.783572899697812
0.864955590232623
0.847456215791202
0.809039168490478
0.85032612920685
0.967718208776098
0.81717576247159
0.845247868616799
0.8580370621212
0.844184616253423
0.835350491323326
0.857122985383715
0.828892210544115
0.867114311678223
0.854736746604767
0.878062392148456
0.880520648277815
0.978505265738839
0.882973795397736
0.969068567900777
0.909413694993834
1.24631129256999
1.11843247376196
0.922185300498246
1.00219260035057
1.28894000929068
0.973325767636498
1.10401813231386
0.938457266661957
1.0675052721089
0.908423354788573
1.06591632318359
1.04701262967422
1.08780099339552
0.976539864106215
1.412246617487
1.42727667622415
1.03141238086845
1.07490826999096
1.67195472646399
1.07105696472826
1.26105860696947
1.08852033951577
0.997577292790738
1.07547623623486
1.42770272474217
1.00667311260246
1.19788082885453
1.05611878976372
1.11262535922863
0.954781934452007
1.25065421181507
0.987483833256782
1.06607473990363
0.833971349122502
1.33478093449955
0.975577327003489
1.25776672125487
1.07533037047039
1.17342023699158
0.883692582861081
1.42564894118058
1.11253981201875
0.892176659749047
0.984170399632568
1.21852616828269
0.93471731571086
1.25412590151951
0.938872744072446
1.43253507339585
0.825461777413087
0.992897509927373
1.02569268430613
5
0.829942278726908
0.770837104190427
1.07115643306291
1.51987820104045
1.07721191474944
1.20165356149299
0.826298153676628
1.58667036384665
0.822164813734774
0.832764411468153
1.11122598774888
5
0.734092039486455
5
1.23394627632463
5
0.853450746106851
1.03861761168709
1.48254271718338
5
5
