3596
4000.36533379555
650.420452594757
1
2
2
0.0701625856343391
0.0536431737415835
0.0772615133777776
0.0509452888728265
0.0698118225336142
0.0473286415619896
0.0695431198178273
0.0505150494730437
0.0692687419078566
0.0479497944509815
0.0578079918825938
0.0482113425244713
0.0667748667430998
0.0401623373521093
0.0629381391024717
0.0513976026070683
0.0649627288392944
0.0471474805057766
0.0586231876165522
0.0534122884910902
0.0653854907751072
0.0500099105462333
0.0744992175462744
0.0465588144720035
0.0710052294718401
0.0590833150633068
0.0658400789148767
0.0475204787930242
0.0698469802273833
0.0538430404005375
0.0678291792686747
0.0536939009505605
0.0613478285309664
0.0591686805647131
0.0687213370026241
0.0500184838226869
0.0573877795335358
0.0513753758549368
0.0789312384728051
0.0507854641258898
0.069836837539476
0.0530483545954012
0.059226870565823
0.0527806867308802
0.0618404470988029
0.0450593907264043
0.0586727046025066
0.0521188455188068
0.0683899916792172
0.0511102196456169
0.0666727712195826
0.0562665733529398
0.0711978356395326
0.0520000150513718
0.052283391741188
0.0526055724782299
0.0536425969859325
0.0476808887477913
0.0674872584871336
0.0538956286742909
0.0619172117372543
0.0435336699681847
0.0624471404837109
0.0488466067932615
0.0591218902301098
0.0562356946561964
0.0539917689553781
0.0573763841793119
0.0571366682364472
0.0633712770482099
0.0628162417589827
0.0512198187480741
0.0660020434233865
0.0458738298673564
0.069304009811329
0.0522563624123113
0.0546577367979104
0.0471528014064437
0.0620749384856584
0.0437728070320612
0.0678757045601869
0.0413845763253
0.0652022841498818
0.0543014792951315
0.0523159252631366
0.047565010293965
0.0643846896804915
0.0409546218628438
0.0804712459801035
0.044629390813146
0.0575596013536758
0.0458258705090672
0.0617278938772993
0.0487503910248725
0.0579147714986063
0.0425538573329413
0.0609794818544639
0.042551153043988
0.061188844775026
0.0391469805816441
0.0686628761035855
0.0338414722690779
0.0903432003588788
0.0338744243123612
0.0673396251437909
0.0530388343186959
0.0471699419424163
0.0635542990249278
0.0566388397025462
0.0511043882186196
0.0542728262296556
0.0501961617534201
0.0501687740762795
0.0426156931373416
0.0565354907144491
0.060607269044941
0.064376765720569
0.0402437498412591
0.0532043802379594
0.0479249130802181
0.065427499892997
0.032891416541451
0.0696697068833652
0.0308329865456742
0.0589674460832623
0.0434941658291686
0.0582828238426798
0.0437427778009878
0.0648517714062463
0.0351047957602932
0.0592326389866635
0.0365960167179561
0.0633489543597442
0.0254781416363626
0.0831468680736144
0.0344982937581115
0.0617843125370417
0.0447928413775922
0.052935316667395
0.043259440975882
0.0488156881932993
0.0443047210320644
0.0607615580316578
0.043432180323757
0.0757013573427349
0.0300356112673838
0.0555787488055254
0.0477722724520653
0.0583060319778327
0.0271115528435666
0.0524780887665752
0.040260823535185
0.0573820475003648
0.0425975568922478
0.0714929906475592
0.00957851788417549
0.0847046999004206
0.015583131271124
0.0852154381503663
0.0241173751899915
0.0574089598776303
0.0373931190808636
0.0482709689557579
0.0431664382142119
0.0487204576870578
0.044364706345453
0.0567554210797905
0.0534956453041098
0.0587265045453195
0.050247745950997
0.0541395569103109
0.047813898392416
0.0555005498074093
0.0328280476929279
0.0538238003982021
0.0236921958443468
0.0724209686499412
0.0239168904595516
0.0574599630797915
0.0298530097040822
0.0560523576527379
0.0347028572285592
0.0523132039965433
0.0378766754030816
0.0626314518131554
0.0317752979951278
0.0615720060877408
0.0347187737079625
0.0636374701113445
0.0402669617898806
0.0700767746390971
0.0328877939731255
0.0612374301311569
0.0193698155275471
0.0583097626574792
0.0405123905227432
0.0506274517023292
0.0337143666607852
0.0439442641785014
0.0379871232683283
0.0512949762291706
0.0373211114354834
0.0511718649703769
0.0333885568306577
0.0528325777595909
0.0271043282686997
0.0546275272254362
0.0357405006365003
0.0476100342132962
0.036848633239622
0.0680465905061758
0.0502237246860692
0.0534854461304081
0.0454801320705647
0.04172071378388
0.0422005139536726
0.0438382664336356
0.0485009309906224
0.0560695529341565
0.0331596109694321
0.0510591175682901
0.0442033333197487
0.0587044524745689
0.0445288501769854
0.0444923219452699
0.0331246395853084
0.0479278655874424
0.0442571266901861
0.0516719332897642
0.0423635909219552
0.0463791002350471
0.0475833986298475
0.0608705546703393
0.0372611574449508
0.0586424807456145
0.0425796754708355
0.0647806424218291
0.0397613601885349
0.0552964888339841
0.0333504312157387
0.0529479056452023
0.0349460668851678
0.0524852086008994
0.03569508534128
0.0576651318560534
0.0530591267689706
0.0556991051610319
0.0393930777874193
0.0497092397625109
0.0612617556408296
0.0457469068629263
0.0580827379550864
0.0413786142428986
0.0541362575403005
0.0441953922183755
0.0650324925231857
0.0502039213171405
0.0446489646343843
0.0595503507119115
0.0567795009136476
0.0486725075409149
0.0549006553618072
0.0571020883539786
0.0594228456189041
0.0678544633355541
0.047530847607342
0.0688074423997837
0.0391710707070473
0.0640125999103747
0.0511204909933644
0.0464839060704383
0.0625481546691358
0.0569854405385133
0.0398042174582701
0.0566403220615361
0.0469220377560531
0.0555768669195486
0.0427632627308563
0.0618603963172094
0.0404946357427124
0.0788318991738665
0.0485005478682485
0.0870059514215031
0.0462947105872558
0.0475855216157984
0.0737316329917145
0.0556377280824069
0.0578663901671546
0.0423344203734552
0.0526337041215989
0.0566766582213919
0.0667949400378455
0.0521800343104841
0.0676347224787939
0.045939239432154
0.0663204849328846
0.0642153774577675
0.0674175807690022
0.0602432691362585
0.0574365638615707
0.0645193559570505
0.0594543424336244
0.0634477823191063
0.0632844128394765
0.0624286673803868
0.0546367463516447
0.0742020851665623
0.0612160391987438
0.0651896466495155
0.0617438338568062
0.0566177478999499
0.0500465294693923
0.0589697593739286
0.0617620851883019
0.0636734801120617
0.0551458991463131
0.0600941864673963
0.0584176843938711
0.0774179884510881
0.0609644893335037
0.0696587676115172
0.0622009566594478
0.0769101116550889
0.0613249244838446
0.0692328990880031
0.0662855295281965
0.0723147928888456
0.061257089105222
0.0674218667590256
0.0784701578214426
0.0686916651603035
0.0647700657243301
0.0897363047184493
0.0581764143506489
0.0909115823220222
0.0595333649560347
0.0840699876797507
0.0736371409521936
0.0740949275695482
0.0732981511151027
0.0793982114247701
0.0751924671984598
0.0819876766488165
0.069222055009293
0.0806978115347554
0.0792104290179534
0.107459854692824
0.0944183868893535
0.0795195045201666
0.0832593765380776
0.0856693094491266
0.108498407025296
0.0603202990698986
0.105032826116345
0.0880425885050813
0.0810025975574794
0.0985847929665525
0.0928801121168204
0.0964708935214535
0.0920100228568067
0.106278491682133
0.0889717563321246
0.110441238759571
0.0990534879769477
0.115913923643753
0.0982738082991553
0.117144528929798
0.112510681099564
0.113768324475139
0.106330145981019
0.122680749901555
0.106114540218209
0.137126144470569
0.123075174986215
0.158987640838804
0.0882402992808881
0.14300177519794
0.125583382567666
0.139338847431297
0.130423102165653
0.133497229115134
0.138946527990437
0.146584996489752
0.137095532172779
0.147024952738738
0.145354854139146
0.147476662281742
0.158908182246823
0.158890860671242
0.150782422103796
0.161544219044315
0.180105250101862
0.172083543076293
0.173054895127394
0.165539114104728
0.18801262963171
0.182651217699783
0.218810991042043
0.179096276064013
0.179544564925702
0.181864646783038
0.195784882807418
0.192928611506314
0.191744094812392
0.201855177860393
0.206097254586841
0.226226852594347
0.211768213964216
0.227948716384087
0.2181982921564
0.219106240308722
0.231850140268954
0.223524209699288
0.239481163705001
0.251086515074096
0.247612940437375
0.229583553811644
0.255254896831445
0.245096295914365
0.260334361335052
0.246877243174201
0.238930371147832
0.258955640000898
0.251219430243647
0.272934147904112
0.262903432188518
0.279188923707402
0.26464821797712
0.276165823176193
0.281602930764048
0.288398137431518
0.292599306579961
0.301950017167074
0.284635444664012
0.294767484770988
0.293508139751357
0.302716454532313
0.318295169319011
0.303716996917673
0.332148062421034
0.312205136700478
0.342059217652541
0.342038038426157
0.322177231692584
0.332903036751489
0.330783159511547
0.340720169184557
0.328111401658923
0.360516295724355
0.353691901542289
0.37049542948346
0.375467981285605
0.375132657165181
0.372290239825559
0.390378354908155
0.388883090825661
0.393647713757657
0.380863794482148
0.388346313967234
0.394862229809723
0.377731167819747
0.43041868358585
0.426922986013128
0.419892425156477
0.420945069911518
0.422842753262426
0.436172924085536
0.444982913487731
0.435902333712926
0.416815222530064
0.443468559247266
0.44496031166227
0.466553611966153
0.449006471278191
0.464910806774242
0.481261609395032
0.469366255254336
0.460088745594739
0.465677875298294
0.473142950079581
0.47019941149469
0.47962360330375
0.50310768477569
0.508122623053951
0.524446341455108
0.531822129124438
0.512975587422786
0.544522317333785
0.523681200256612
0.50359011015413
0.529169992886936
0.545311093846245
0.531682467809436
0.558431704670056
0.538183931974893
0.568007148699082
0.568496048507322
0.584813806285622
0.569340147803721
0.590846813750401
0.588795912082427
0.575478201960395
0.597693167021325
0.607873354753977
0.593430207818001
0.600181833519457
0.599620134999179
0.592596795699436
0.593363790891144
0.629272109228677
0.638142987077241
0.649044658866438
0.667604993804341
0.624759381163107
0.641133050784814
0.635671398643987
0.646076178596119
0.689164330278249
0.650463948217436
0.665728942844506
0.642850895594065
0.698541310704416
0.698920777205215
0.722520803954112
0.701052908973395
0.721376224521153
0.701763116166922
0.690682166829712
0.707283161166189
0.772414680202406
0.746008915911462
0.742053937673614
0.719326207663272
0.752441056582419
0.740284549394977
0.749822486450985
0.726368865760558
0.786915410069467
0.77309557324646
0.772369892551228
0.785634053071906
0.793757901831283
0.782228124014337
0.801082608255933
0.764957066547552
0.785196455853001
0.776914672898684
0.840402421205159
0.8056550976282
0.85883955440998
0.805817450130978
0.854577176333173
0.866282478008094
0.888656884108539
0.820603882471543
0.823781914372608
0.830088740018951
0.885304654238499
0.822617511872054
0.839723332177135
0.838712883457863
0.940857881732041
0.875389265320016
0.899269410659905
0.881556470296894
0.913475938374485
0.846405612069507
0.987097148901846
0.881917751395756
0.952603104341382
0.898554991137014
0.910003293419085
0.910363066321603
0.942672112213276
0.939334086161867
1.00883391693823
0.941252239408036
0.928667251159214
0.893065645976816
0.94599195728187
0.971431478305763
1.00141821833162
0.990990938721344
0.995061552428488
0.984488824848549
1.06080293265684
0.968935308467501
1.00044888516769
0.976283389568067
1.04877287521257
1.01186472325995
1.11773400265158
1.00447157221523
1.0178670846049
0.967700240021524
1.05498418390519
1.01372575743647
1.07823840727857
1.0730601201497
1.08290459247225
1.03296344376676
1.07227350279557
0.99171067060556
1.07090449102235
1.04466316613502
1.04851339007766
1.05091835214691
1.15928212644087
1.09571976841004
1.16760732921127
1.04218817757072
1.15547798011365
1.06969947355765
1.2124032027653
1.0947221581838
1.10027082745588
1.138387407395
1.16754264006105
1.10881038675653
1.27979185946337
1.16581636627329
1.22134258293073
1.23391330981634
1.2205166673564
1.12240619169394
1.26091384315981
1.09084984296893
1.21984773252095
1.11287212700071
1.20575573363759
1.12624841727061
1.21297441789461
1.18440588210129
1.24696055588227
1.13723994155589
1.246922227837
1.18247957369794
1.28920763841332
1.16983867578408
1.19943806669399
1.20944348777396
1.22346453939884
1.15976495360487
1.29940361744433
1.23324944025229
1.36087758860307
1.2183642960046
1.42553028771613
1.19750352919555
1.25789322762726
1.23886347925529
1.21861898185435
1.24384429956279
1.44910257624524
1.40183736664783
1.252978801291
1.16639616968995
1.41319797921703
1.3102476071699
1.40642033071755
1.29170026222408
1.47472611675201
1.26227331336505
1.40989037187201
1.32169820618741
1.45769020168836
1.26375245857944
1.38974647524269
1.2361812061853
1.51142376989977
1.27619599993792
1.4861123341144
1.22455793169854
1.28464987716314
1.28347909000487
1.33760355777432
1.24361342136484
1.45480280943311
1.26898305347188
1.50632998554364
1.28186781483304
1.34458129304331
1.39382168915089
1.57358711243498
1.2693586748008
1.41653385181223
1.33956191872085
1.36070759197183
1.26155436676339
1.43241032001808
1.29462297843793
1.58470269754378
1.30902195345227
1.35692815459087
1.471272510848
1.58625364903025
1.25782558487569
1.47378981468808
1.41178395231551
1.54047807696164
1.34526535786767
1.29686892885178
1.35290993533455
1.48644143961346
1.42620089070578
1.48039539573065
1.40256667975708
1.49286440337853
1.30814804442456
1.67478157573286
1.34159928082214
1.39970062616843
1.46638660531322
1.44318334231479
1.36412406690538
1.54745907898493
1.42191546305457
1.55345902010845
1.32886820057625
1.49867086159482
1.55249868780873
1.57105673298322
1.37982931966241
1.51915263701862
1.46748617215511
1.62467277350516
1.37504264202858
1.48677277034671
1.34481667694896
1.59785972754879
1.40825841523879
1.5068321820044
1.35874952072606
1.54420557938665
1.40731902023143
1.44044161789267
1.38142382758249
1.48731400702962
1.42299187236226
1.38684879098613
1.33473493760163
1.59843267668581
1.36253324956791
1.45637216527319
1.50469388646478
1.52673314888459
1.3149263206223
1.43023789323388
1.45464800195102
1.49960563158054
1.35070850851989
1.47595704365805
1.49074367910194
1.58034589608905
1.54057942477826
1.55734999214112
1.42399558167157
1.45526458507616
1.37664439862871
1.50956835128357
1.49166553598772
1.60245360033335
1.36622537913677
1.77889924704308
1.41311170315612
1.46942724957376
1.40461129122624
1.3805153649568
1.44511960552466
1.68843399614197
1.35323515379297
1.4820840874849
1.30306620853352
1.63540961793114
1.44572170886412
1.56651386185869
1.35926506448951
1.53650833530503
1.37809245442963
1.5563928831009
1.46129987518863
1.47633732409552
1.40221745131577
1.39425241690918
1.44926056852674
1.57737585499364
1.50381860590542
1.58592744343938
1.42554613775968
1.50659366557884
1.4148977984951
1.42451162112552
1.38695776048041
1.48140591978537
1.46842435793289
1.42095512232879
1.49813352565447
1.42939164553374
1.36750828808933
1.48506077220641
1.44378945901409
1.66447892646853
1.39511263830681
1.37387204670468
1.43675025911687
1.47101587794892
1.47135050178164
1.49067662545772
1.44958379500549
1.51221608195676
1.35850588337068
1.49296264111776
1.34588715164354
1.51005160673925
1.43215415154607
1.46924333028707
1.3154722737936
1.52160825101827
1.32486655067528
1.51872647332974
1.31509770535518
1.53635275954261
1.3853519548154
1.3650820782809
1.30632504760872
1.45833373965248
1.43956456561975
1.39393036774849
1.43761581443714
1.37944798415557
1.36625352870243
1.40508934597769
1.26939693385188
1.31628014942291
1.41958267131164
1.36224653763805
1.30422138039132
1.44296643900082
1.30145190822894
1.3830845208458
1.25590521178124
1.40569049583527
1.35180312886507
1.35512862379005
1.24047509604284
1.37146486498227
1.38769725933131
1.48906513622666
1.27998219669332
1.32648398619723
1.24509270463888
1.2957054630219
1.20236105873548
1.34982587175442
1.3187389792079
1.30808801162343
1.23098825217423
1.34868646791239
1.31710278626839
1.36495933917284
1.23679176286088
1.4439956614576
1.26256282028388
1.31173920425869
1.26908279412855
1.20349818045276
1.24224392775021
1.31621579748063
1.19473985064439
1.23691761049247
1.22156508617343
1.21915161719235
1.15544476264984
1.24005637159303
1.1877198203838
1.21444507606859
1.18235391013019
1.18158663939717
1.1766929115493
1.2534089657173
1.15556791512823
1.22761772530475
1.16732079125372
1.1810524876469
1.11040635187092
1.20004579944203
1.14056449744893
1.19190069960551
1.13077921720564
1.16641785171353
1.14508419974378
1.14940515629065
1.0578480821826
1.17896220375434
1.11455302969542
1.15960891683117
1.09532647076313
1.11367351943358
1.0934488116912
1.14649001069015
1.08646408078312
1.09075490924052
1.0683445699714
1.04984515130944
1.00158770854424
1.08154648140031
1.04561807596312
1.07436752487446
1.00546013141545
1.09255469768241
1.02893625574204
1.01494907214441
0.976183275162576
1.06618708557902
0.988644625767156
1.0112785371384
0.999826309823855
1.05015583790813
0.970102931783752
0.980259452216788
0.959820175216608
1.00416439321343
0.961085952886471
0.998017742002899
0.956675563841071
0.965810004546367
0.92387314301682
1.00114425423185
0.929669501864551
0.979317044312076
0.915331228419156
0.945468429843647
0.899265828142915
0.920225192083139
0.867627119156057
0.934425318825005
0.889965757475399
0.900309109016119
0.876583926219488
0.891166099350879
0.85896106475696
0.887690351660318
0.85747716626242
0.86864619836225
0.826926975079466
0.840728994967474
0.826959736492406
0.833039638650122
0.832993130264906
0.848387547130476
0.832493888063917
0.849890194511471
0.814865331310935
0.823330624264995
0.804277047161859
0.824507174343878
0.822487903286931
0.805897423174946
0.77996569898823
0.800703378635288
0.759462652906255
0.801121080722523
0.766504202373571
0.785490819012839
0.751120194453565
0.769296103431366
0.757062558334869
0.782034712524432
0.732008771947593
0.7690758948672
0.738034235770284
0.745302769299011
0.722185575445229
0.722318674659717
0.705190745635928
0.714740577547238
0.707417420959061
0.733925296779305
0.706208816459437
0.714109628981632
0.693222597310202
0.688456453496145
0.683080685786767
0.700904243483821
0.680140544537741
0.697443536550386
0.658259669932007
0.66141437590245
0.660667737997387
0.676699610687334
0.651590145352556
0.654875872529805
0.661556815257637
0.663962292810973
0.639310195639969
0.65892510056098
0.632765363069455
0.655679284255355
0.623545611398345
0.640936107125967
0.614657016989747
0.624336977340003
0.611901229457807
0.614352899836162
0.595795798590683
0.628627263540884
0.593406042460883
0.592726942535077
0.596528529210261
0.606237656251095
0.583462356265059
0.601401930463496
0.588701932782282
0.600462835935256
0.559271403969515
0.583012565406653
0.573436313124543
0.573593462543124
0.569898038628198
0.573303616854777
0.554508101060674
0.568252670837956
0.537455094836452
0.553747714928432
0.544321039589752
0.547676908661206
0.527927595691523
0.537845802716862
0.535603543838861
0.539900489450058
0.51941350518405
0.53428157868298
0.528747943115381
0.521938766781576
0.516565373210176
0.521504558895284
0.508663305005579
0.518397506002426
0.504035757559333
0.51352921918949
0.498048864889725
0.507217932888214
0.489911815824888
0.503788824764415
0.485701858424423
0.501024940485496
0.486998379575113
0.489313318971992
0.476865066664565
0.489181179569202
0.466739354335262
0.476762292700744
0.470026993818339
0.487381227803919
0.467041728924669
0.465193682012203
0.457650412318842
0.468221450563907
0.464894758881618
0.467961522609742
0.447200336875947
0.476045074678125
0.447617593463083
0.456862751643171
0.456128772557426
0.472527972985131
0.451812936497884
0.453971037502744
0.443505792423669
0.446220782777431
0.442389284977873
0.449421425109196
0.44448188239567
0.452018198846781
0.445615149177717
0.445273938247439
0.439881464982613
0.452148704874263
0.442005480760579
0.441953055571368
0.43653311067995
0.45204755351804
0.440483117463018
0.450707372016922
0.438517433285368
0.446678113641145
0.436072256733502
0.440424167682007
0.445327166324421
0.460866366523221
0.433657301535152
0.459032026024947
0.446486920691299
0.453074517900088
0.44007683023309
0.456483825429442
0.446405004563802
0.451943339018643
0.461834200630061
0.461372849601374
0.4590609598527
0.466344028518479
0.461004321751405
0.465892568641192
0.46825694611683
0.469592177968432
0.466919491194185
0.496517156032666
0.465082691170914
0.473192343714222
0.481500013175278
0.49391367627697
0.478656951886737
0.49399022631206
0.487444255346961
0.494383533502945
0.496168421689169
0.505766825050454
0.501310956983548
0.506006763488967
0.502143472287048
0.510836923335574
0.498917882062429
0.533739585949876
0.53129470428652
0.527514944063297
0.530735135085069
0.541181195644563
0.529586330243269
0.554001325144828
0.556174500894094
0.551997000453823
0.559264877227689
0.564134926881649
0.565082684119383
0.575628538751766
0.565284869829386
0.598530530199278
0.590406951298471
0.599040331816897
0.594936391306098
0.610423000131594
0.601148082511559
0.614176064559112
0.593124238209689
0.622978482977123
0.615483948073525
0.615680664194739
0.614091903945459
0.638336550450638
0.611027426436245
0.621369324318939
0.615708060837961
0.62325747236068
0.618165600556308
0.622905960279876
0.623075233868679
0.636034685802668
0.596954804362786
0.619565499254823
0.613862187315277
0.616240813385085
0.607390966801133
0.623089269142404
0.602565683381742
0.613811264030269
0.599217980004962
0.596808161643029
0.596127954996147
0.593098706375801
0.598617684542442
0.617792538615732
0.585828298083622
0.618131582364895
0.586943229672788
0.600937022506349
0.587991450523651
0.597970112324615
0.58984170009367
0.599810162240531
0.581635122057081
0.593491801837562
0.580653587559086
0.600065030654401
0.584105125511563
0.58875271891478
0.581786576231273
0.606236688444111
0.590690408291916
0.590376561089924
0.583924704267124
0.58983844975541
0.578775122201514
0.596419603996003
0.574567417671001
0.588950757711232
0.583494261012993
0.57886636708174
0.570160802617078
0.578370973690109
0.572589655016293
0.579910789843305
0.564146442829705
0.572227967651999
0.561629495247574
0.559043718330762
0.54915944451671
0.566186580802059
0.542494368395282
0.551648424475119
0.535316074327562
0.553439204279239
0.536193324772157
0.534976215758073
0.523793852079736
0.529651025788888
0.511955698549537
0.524683261014557
0.513525934133216
0.527103170967439
0.501101916101969
0.512310684877439
0.499173181414494
0.499723630391288
0.479966701744205
0.49237293288028
0.487833706809162
0.487494359095511
0.465245225931151
0.476360566495753
0.478717698288121
0.484905741368825
0.468996358777593
0.476587222519916
0.455758671887069
0.45789524566878
0.44647523968383
0.45124461904817
0.452372068967078
0.448596467277106
0.446821478030231
0.446791232959896
0.434763736856615
0.440882560957652
0.433611131457592
0.435356761166518
0.432979692450464
0.43601531008646
0.427869340483487
0.428377587640097
0.42040596832891
0.431487713801536
0.420719763385627
0.418362676497935
0.406677018492126
0.414121070320067
0.406424390488352
0.409294647275372
0.401151417448026
0.403903378188172
0.396428428756097
0.404148153495473
0.396413031714196
0.404868828597362
0.388371131780844
0.393954913724288
0.389240590248998
0.39691124889218
0.38813272720549
0.389031598903543
0.375257944068162
0.386420696968987
0.378959608660689
0.38754279707308
0.37366497095903
0.377739267098086
0.377222066889549
0.380101314223787
0.373673074374697
0.37679495853586
0.363597487320821
0.369458588277595
0.367431940992066
0.363898311845234
0.361597274341797
0.370880387260738
0.362808794272381
0.364451977060409
0.35541623781857
0.363064901383497
0.361152064034579
0.358859994363672
0.350989876969599
0.357547567878997
0.353075667394259
0.357467525288124
0.346612129778578
0.357799380908032
0.35574014920877
0.350659229835784
0.344252792973013
0.351376331194646
0.346362755052094
0.346767800908124
0.339123798715547
0.342399224395928
0.336218382152211
0.345175303502204
0.341513248113922
0.341526505997813
0.336039839181866
0.343784160078711
0.339485096770828
0.342797255154655
0.329504036808821
0.337604460774802
0.330853291263422
0.338960883170179
0.335248322609779
0.338039708367896
0.334149150849533
0.330970984982106
0.32850812036053
0.335588504109408
0.326239420216327
0.333618237167218
0.327917871919826
0.334220823905813
0.324827466673302
0.322679204384045
0.32380766086007
0.325270473435648
0.325935621483403
0.32727932273871
0.318891621908685
0.323054644070967
0.317086090471923
0.322816682094537
0.324851576978005
0.326167844020104
0.316695482380498
0.317657963168847
0.315458289265205
0.320080527380429
0.318700476866934
0.32133003455268
0.308073444648055
0.311887608978288
0.317550811167474
0.317761813488126
0.315531953068884
0.314057924618239
0.311048080594543
0.31521335996567
0.31087462733947
0.314521016549413
0.307511693853399
0.311012678562132
0.306852892880089
0.312464526759723
0.307362056892992
0.307362025550679
0.306994856758856
0.315809432290231
0.303263609741526
0.307469196870825
0.307659998616874
0.307489392641417
0.310443122503704
0.312786921990096
0.304229262786927
0.308624304599795
0.30582653223009
0.30689855552705
0.30278065956082
0.303536230054534
0.302161371244152
0.305807947895774
0.296881449067096
0.304814032886973
0.299252008924434
0.299770791464633
0.29635650532824
0.299600232835754
0.297855734726647
0.301393446905933
0.296543088269628
0.295701945201462
0.296959093287852
0.301615854950378
0.295102067312056
0.297483646278615
0.29340446109445
0.29681205065564
0.291028191098704
0.28581895589953
0.286846401087525
0.292324786339777
0.287436922515935
0.291156521682237
0.285549910142031
0.288454250311053
0.285093076630462
0.288700839958327
0.285423995698671
0.288214509680459
0.284637876354005
0.285939293337351
0.283526463108012
0.287510218001511
0.285962627322072
0.28275944639522
0.280657443360012
0.28365394966747
0.285090899734228
0.283851534995461
0.276781662436873
0.282764169786807
0.282829651575849
0.283407430623807
0.277390583641436
0.278189801441246
0.276433903465239
0.277055159868156
0.272196962178534
0.279456065970133
0.274930451779448
0.271510121437843
0.272639016661528
0.272120581371813
0.267575018820536
0.271487362700746
0.273707546620032
0.276967528065179
0.27109149925965
0.27039068422684
0.265968707264151
0.270506810679218
0.266333825716468
0.262610886238723
0.262954581143234
0.266841632931018
0.260572272282542
0.263916717980579
0.262421421926265
0.261461907655506
0.258012839326492
0.261805234808441
0.257779187541491
0.26162454438893
0.260057963188922
0.2587884520373
0.259203923529825
0.258540953393028
0.252185997847488
0.254522417373892
0.253416215584293
0.256651801772102
0.250274622159798
0.254958855697468
0.248336111337627
0.248452201456788
0.24938028123964
0.248156447322087
0.244502546996223
0.249151885289965
0.245314027905544
0.247200587595028
0.246768945110468
0.245281359310124
0.241741112212321
0.245758196085041
0.242484990866193
0.243318531434565
0.240539901369389
0.243109024459938
0.24057385158116
0.242613408420342
0.244722574153755
0.241589752520979
0.239081800921501
0.237262594079786
0.237373638842346
0.235153709707801
0.233819210129682
0.236012969777651
0.231211236974831
0.231941556728217
0.233964590215442
0.236165665853719
0.232283530987704
0.234610901907777
0.229388190046001
0.232141654170682
0.23007251917132
0.233423196356043
0.23088535550625
0.231383456079221
0.227852514333909
0.226660588686137
0.223779806970071
0.22953906093248
0.227428326313108
0.223893285966388
0.227782906972491
0.228994768765804
0.226215902203487
0.227759412279947
0.227076435388145
0.225896968893791
0.224207686789104
0.225700801927845
0.223813828609084
0.222581932860285
0.224180666335143
0.225459257813721
0.220306834442986
0.2201697406779
0.220871631147983
0.219501926602244
0.215731165865704
0.223823455727646
0.218002604060619
0.220476120964175
0.221774054251303
0.220312881863924
0.218612585423963
0.216916389692273
0.216537508664934
0.21790319897453
0.216583134549409
0.218779064791152
0.218645729565851
0.214150159099619
0.212814587247188
0.21537251988283
0.214346923074644
0.216063501714657
0.218263860637729
0.212575876779408
0.215702911442791
0.218536588121715
0.21432163096699
0.217025385171871
0.217836960557205
0.21190648307063
0.2099634125975
0.213751485206175
0.210998783304579
0.213929704535151
0.214814910078156
0.212680755590059
0.212881301554727
0.214136101168574
0.215447590596869
0.211034641812213
0.208415273967053
0.211178157167841
0.211281524030117
0.208201499923563
0.210472763183982
0.208490830964044
0.204813920435997
0.204898932458664
0.207862826501501
0.207170587353533
0.207906206881303
0.208798204434812
0.208435142616954
0.206201205364207
0.20484570339334
0.206035462447916
0.205033067621142
0.205577001865173
0.203617400863119
0.207731900489279
0.204866916647761
0.207338977259986
0.207600202352374
0.204428218035863
0.202730140234629
0.206068323419429
0.204755709170584
0.203289560431886
0.199478772464776
0.201535452657041
0.203393238768455
0.198707471660844
0.200759933780708
0.20242097085244
0.202534197109024
0.201684995731637
0.198164869590675
0.19939414154106
0.205744818417294
0.202091782941303
0.199875473055203
0.197877074374364
0.200771653037267
0.20024739823902
0.200367978838259
0.198363706375031
0.19839732669907
0.196976866025952
0.196724397996271
0.201510547148983
0.194438401614434
0.198356011761369
0.198781405314779
0.198953378141958
0.198537829867071
0.193158928901053
0.194494658169648
0.195278598888236
0.202808448560675
0.195866382417152
0.197664170125297
0.19860128841895
0.197498761066249
0.190211372023085
0.198715352112376
0.196144106166371
0.190204058027695
0.194310963695112
0.193389073029254
0.191624123027529
0.193122459107707
0.194312918619963
0.193817298237687
0.190696652113426
0.194097043069682
0.190208005647158
0.189843573629335
0.18947061168379
0.190500081523584
0.193627453785723
0.190001087713506
0.188082369779817
0.189918921876247
0.18437411813527
0.186746933715669
0.18450075348039
0.18607121946974
0.182426177658299
0.186015900651035
0.185317380962337
0.184923013771847
0.187007891647963
0.184712470437813
0.184717800949733
0.186081481080137
0.183684246327446
0.185195171504856
0.182561197148351
0.181657267273327
0.183968133973263
0.180205595887887
0.180834401348598
0.18106019029215
0.181449795407712
0.180545518315322
0.179098112201599
0.18034003724198
0.177181882119292
0.178903813880062
0.178348924611322
0.181998428466733
0.177000790334919
0.179922878390655
0.172684708935435
0.174406882947178
0.177017272542669
0.176808991247758
0.175650867607633
0.175813829623729
0.174768694705928
0.173318682054304
0.174523155988587
0.172551859279868
0.169099697539668
0.171399023908406
0.171350913783013
0.173336435339197
0.170844015757622
0.172339208988314
0.167455339238584
0.170412125381026
0.171746938494267
0.172177133328774
0.168977945818963
0.16727200539729
0.166275809987095
0.171326215143129
0.165134897143394
0.171581441982046
0.163294189509646
0.166596204562149
0.163739093295499
0.165807172561778
0.159155146739812
0.163445926287681
0.165839673059569
0.163353400707544
0.162933572427575
0.164641397219833
0.16042836258986
0.162478853407864
0.16060418270892
0.162624974166589
0.159967937939152
0.15898789921184
0.157776498930026
0.162580645726531
0.161897146903065
0.160208330027149
0.157604949745905
0.15940391504927
0.157481468343394
0.162639592202154
0.15642280999431
0.159099593999667
0.155659063450251
0.161913883310038
0.159117586303337
0.156118002878383
0.154769051198066
0.15717369352973
0.153454889443869
0.156765891360305
0.153031283015377
0.155983436693493
0.154767270611344
0.155912410088086
0.152867947287481
0.160012632393238
0.15373365838394
0.155146857531904
0.150015269845017
0.15627891218574
0.152647634872987
0.153994397285635
0.149174386783479
0.155046100894743
0.148775794301467
0.159585382235996
0.145096560340742
0.156219019154747
0.147092989063197
0.158257177250756
0.149703044027633
0.155110661190194
0.143043072325005
0.150217602999743
0.141649799505145
0.15711802532528
0.141505301790062
0.150045539521727
0.143908717441205
0.15184175704848
0.132795514711993
0.150484388386326
0.135290582807568
0.146767979277287
0.137321814142871
0.145623142762401
0.139698018672423
0.146024615557433
0.140936753839992
0.157994723018881
0.129572596002605
0.148524832327168
0.139354551627489
0.148677848451432
0.131501761118501
0.15268373740395
0.133140335845147
0.154716562927653
0.130755110618375
0.149922519571334
0.130836352274803
0.147441052864769
0.128150943261603
0.150332537125558
0.126199711892184
0.152782465545988
0.1329711617796
0.160618122685392
0.128245019717783
0.153889889905352
0.123508636939654
0.147634119004083
0.124366327110299
0.156170327632387
0.133145887687511
0.150972128046896
0.128074790194897
0.143256505223362
0.139890448226635
0.147054291332258
0.144430599513244
0.130382097261268
0.149246604887971
0.127702077574694
0.161726764861548
0.11757818577324
0.164895067271448
0.1185284878
0.160626427371475
0.113844159070481
0.16463111441127
0.114503255748593
0.15666340375895
0.12896005497878
0.147772803533314
0.132598183916457
0.145268208219896
0.140160093392713
0.140098746082057
0.139693155133296
0.139566031381566
0.137294911948549
0.142299718149387
0.134972846034949
0.142979707448087
0.134182918547904
0.14497352704277
0.131702410568662
0.142725420734742
0.137146215573856
0.141657418733927
0.137991376055445
0.138799820799257
0.138066892035516
0.139070855866946
0.138884406999385
0.139476694962224
0.134894896750097
0.143876488273538
0.134641504034969
0.140224984209213
0.136481704272492
0.140482053507388
0.134123985232576
0.13887949770105
0.137027991548186
0.141781120340897
0.13857191950125
0.142117143788609
0.137954807279838
0.141025553985081
0.136626263151512
0.139085789738875
0.136036050463607
0.142484344980925
0.142317573651333
0.140349186602773
0.137817616650791
0.139282901747049
0.138394792454039
0.141584969080703
0.139344113705164
0.139488648404205
0.134056697653581
0.140342329900547
0.141457491144616
0.138179350087788
0.135881449905211
0.138518279581989
0.134886215074548
0.144461591289097
0.137981580353625
0.139897537835476
0.137982550216409
0.141887344780583
0.137485576171348
0.143497157811435
0.137976814770243
0.13828348281578
0.139605047755964
0.138119479700752
0.13643215722824
0.139574835161042
0.13909583437216
0.140022711276506
0.137355115897709
0.141880245636524
0.139482814670342
0.138873962269904
0.139662834651533
0.137925925320781
0.139106514935799
0.140382703030775
0.137711617990717
0.138808013043148
0.138444962660944
0.143404376654454
0.138609783770683
0.14170999071742
0.139773196932238
0.141529944813541
0.138504049962618
0.140102399657045
0.141223434084017
0.1410162483062
0.139036202451222
0.139712661692252
0.139171205127763
0.138652577919243
0.143281003701366
0.140251978374762
0.141819630074279
0.140889041842813
0.141839675424014
0.140456225631831
0.141237505527912
0.142540146524048
0.142496379359511
0.142894449021856
0.141013647419203
0.142808319446795
0.140953385971104
0.14313015638735
0.141049850711992
0.142590151981141
0.140700846874081
0.142826402174922
0.143137687205798
0.141448956475882
0.14425330739154
0.143192109611567
0.140134810416572
0.145196228577984
0.144015124896722
0.142568103657238
0.143388956251846
0.145566922973696
0.14205356015286
0.141967536622373
0.1429734441594
0.144483530062084
0.145090344352632
0.143743925540741
0.146366780533818
0.141545785059673
0.145219071295118
0.145503273018976
0.147960134660341
0.143759562950877
0.145799451382985
0.14465628641483
0.144514140662552
0.147140691184487
0.147760161859482
0.146452643073489
0.146997284245121
0.145984786994677
0.146458954455436
0.145285147852469
0.145223654595544
0.145808301837271
0.147147064478507
0.14627981787477
0.147544016872812
0.14674190638274
0.14499371173661
0.145701344961502
0.151950358468024
0.148286813988558
0.148983026805038
0.150969553814823
0.151099143046972
0.149517290193803
0.152825809012557
0.149373336814125
0.148398210430504
0.148992170225898
0.150394341557598
0.151236100527056
0.150595131411747
0.149266117314354
0.148059123686237
0.152757063553907
0.151789122184655
0.14770525301325
0.150547255216708
0.150997228775771
0.152559134436608
0.15020445004167
0.149326116920719
0.149732871591705
0.151027859269413
0.153140244347385
0.149177191437435
0.149335984341144
0.150507224058174
0.147562212709499
0.148592123095491
0.149737929155927
0.147900987165463
0.150531371091661
0.149031522605517
0.148272266005968
0.147916989858241
0.146429643518838
0.150052781257006
0.148602885034624
0.147907388667523
0.147481413419103
0.145590622569962
0.146599545601016
0.147577396433621
0.147782862414674
0.148630166603691
0.147716507320162
0.146496167946952
0.146014742260319
0.148928559354693
0.14718222918957
0.146444178006884
0.148267092304413
0.147403311132838
0.146764334281976
0.149860469112266
0.145553047071719
0.148228548541014
0.144297126951113
0.14762431248965
0.148071088505787
0.14622487243036
0.148082769345556
0.147265263299058
0.145416626748688
0.146570677498063
0.147443340903248
0.147641688567731
0.142481028702147
0.143863176495923
0.144506783614226
0.145082321565291
0.143933165986553
0.142674757261065
0.143451959721174
0.146352012492089
0.1459824042976
0.145288409915024
0.143498851868371
0.144434544335096
0.143068550871091
0.142832235059684
0.143490229302342
0.145186256717331
0.140424844496065
0.143095120672781
0.141007602189816
0.143759708050493
0.142015613543899
0.1422166526943
0.142284491039138
0.141684450212242
0.143103085349124
0.144048106544557
0.143600372150044
0.142203308463085
0.140060282327327
0.143133048105889
0.141188272597201
0.14153396227967
0.140721594350777
0.141320814847234
0.140239604079192
0.140515877334372
0.140590277486434
0.14066127978259
0.139723905807793
0.139533386617437
0.140906676970685
0.148026539082211
0.138888353827585
0.141533156581018
0.139059241655523
0.138309385100658
0.14130288669915
0.141769770682933
0.138458968469309
0.138761469157669
0.137723464656558
0.139230897635382
0.138668239501621
0.13902327019072
0.138659765935666
0.138411798077354
0.138593913539162
0.138416545943897
0.136475269319658
0.137675872279391
0.136396811089664
0.134774371642095
0.138188772408697
0.137078551532803
0.137598155530519
0.136029666998497
0.140089625862489
0.140502311360362
0.136853324772179
0.137489973472614
0.13311648253557
0.134664517642974
0.1339630420909
0.137770186960356
0.134488531819353
0.134035840709639
0.132027640969675
0.13305053327241
0.132255174684753
0.132217860713853
0.13166414474447
0.130474512548437
0.132826593051599
0.129912868794988
0.129516458622454
0.131442715311959
0.129992528079833
0.127542309155887
0.127597346272198
0.127804864146162
0.130231530241203
0.129658057854691
0.12700006213808
0.133452519382333
0.123249804353697
0.127684177341808
0.122857751164247
0.126278189631412
0.1234759660676
0.125828995226604
0.12592786840764
0.127664861309563
0.122155584322031
0.1239696261513
0.119275269677099
0.122150384523071
0.120620486200823
0.123402884002344
0.118524290916278
0.124341542980327
0.120506377301325
0.122085570953967
0.117743307615927
0.120874887872975
0.116516221035189
0.122308569251876
0.118557009761556
0.121109027264732
0.118525673319917
0.122535228341002
0.117934835848079
0.120198957670967
0.119905175416363
0.118417018145297
0.114970027527728
0.114618600680942
0.117849201019624
0.117141948970962
0.117644369164612
0.115552356180794
0.115931031912451
0.11606005574287
0.114758448832952
0.112992687323523
0.114630725914289
0.117255701325466
0.115851736484932
0.115431241815999
0.114995192373024
0.116895469348424
0.115447354159744
0.1132412934352
0.114841243388756
0.113910155902803
0.113610316304892
0.11296238040943
0.116670151453248
0.112728684361237
0.114205577212185
0.112505066210293
0.112872720246608
0.111770086314835
0.113351850636451
0.110203312696241
0.113630580283072
0.113603330321875
0.112325155295274
0.112604083578541
0.112985678594336
0.113504900810255
0.112202435324129
0.111627912752266
0.110614847517091
0.110154214488735
0.110545935303762
0.109241804336576
0.110553290349807
0.109114042136189
0.111848332932844
0.108599003668477
0.111950390709179
0.10922167457876
0.115066274785108
0.120894444764508
0.105306826719072
0.114362755238522
0.110752949655552
0.11360650584032
0.107150952831847
0.110629180839081
0.108275345054422
0.111573382505099
0.107109300051209
0.110334405221048
0.107118586822159
0.110123498700514
0.107587769540946
0.109736894733497
0.107233847732366
0.108829143514354
0.104860001646983
0.109560359079108
0.103882187783
0.109287772803199
0.108832809287523
0.108576125330104
0.102456174705438
0.111852107761797
0.10074251554361
0.120203923943149
0.100669755503598
0.108372561395152
0.103588693514526
0.106931634515869
0.103492148303184
0.107498724179321
0.103859348691805
0.109390981232317
0.108439164554806
0.103645080803248
0.108675981989469
0.104286110704735
0.105920775728772
0.10328697467237
0.103799011637236
0.105175081768795
0.103639787000369
0.103451924058539
0.102701496619621
0.103763596006977
0.101733827274385
0.106189954782476
0.103397724377152
0.104344469065851
0.104346903806869
0.101500908940157
0.101386314491312
0.101296133646283
0.10350435827354
0.106438117127576
0.112379735681093
0.0953675491940138
0.105341841039184
0.101598771303722
0.108783979623179
0.10141272048489
0.103241703270142
0.102532695911182
0.104798964315909
0.100400517641796
0.102942445061992
0.103130004670222
0.103620022181282
0.102039162984769
0.102566143542397
0.100111634642898
0.0983107735726301
0.10185424510195
0.0968412585659371
0.105160506392833
0.101444367564741
0.109685989006226
0.105946737184956
0.101685258000909
0.104122028945632
0.099856707298877
0.104161094165221
0.101685595261638
0.103218468233979
0.099165775240203
0.103750000264257
0.0981910588280762
0.102068182116707
0.0990968582975885
0.103988207334025
0.0968768194593943
0.102726195727627
0.0985573730955573
0.103925851197642
0.0986720434858913
0.106106419472639
0.0968106351564438
0.104237290683946
0.0938207747305052
0.109491090872427
0.0956120076406049
0.105750358528141
0.0944447289196789
0.117641848409973
0.102276792276926
0.0960440482776989
0.108680417902908
0.0967653772545072
0.101643666829585
0.0975113016296509
0.102086060229449
0.101252705984986
0.100618498699506
0.100018203234169
0.103122217024946
0.0989135806031655
0.101005073808277
0.0964671243362045
0.102937556516466
0.105792673521995
0.0956187483329366
0.102398943224435
0.101173317975918
0.0945807349505036
0.114020370215842
0.0941312120904003
0.107096036533255
0.0990914892374463
0.101253502132028
0.102873960094734
0.103189504543041
0.100137006480061
0.104086563455996
0.101789099284029
0.098396526910618
0.102567980093706
0.0996583096942578
0.105385026102997
0.101496879728749
0.10509880523128
0.105248476509153
0.100469882120583
0.106437466485807
0.104267415676425
0.102587517575339
0.103426433501293
0.102686174225658
0.103060697053615
0.104817112164819
0.108541458708942
0.103395533931505
0.108723262441734
0.106127106523796
0.101353421346215
0.105978834285637
0.104242166345472
0.109222994863521
0.105813235997831
0.100969899303635
0.124049186896489
0.0947754135819422
0.120227772961703
0.0974773586524454
0.115115073103397
0.0979604222465853
0.112349478917795
0.0985838461786689
0.11437012430865
0.101791950924069
0.109395497149523
0.106494016630202
0.107598342761033
0.112568207408096
0.108740489695219
0.109106308467511
0.108690347463056
0.109520099665348
0.107473378088039
0.116123456932596
0.103708404441571
0.12736595894799
0.109114683064786
0.109057101558559
0.114282832892304
0.107074192792737
0.130063382515864
0.107340203142319
0.115663634814274
0.111324510020022
0.110870923478626
0.116656584155254
0.111081128048591
0.127441144324391
0.11570460569444
0.110060814786072
0.121991639949058
0.114194276057043
0.12989496202892
0.117223887763725
0.119674312443299
0.1179866937067
0.123621152807517
0.11570258849416
0.132776600180637
0.131452461819756
0.115603541440022
0.145208155648561
0.120071902039592
0.139675848267438
0.119278624649214
0.134194665123579
0.126886732166072
0.138112662894968
0.124988519476448
0.140550186760677
0.12909390319139
0.151397214238404
0.124641652040242
0.148521373910997
0.13841626330424
0.147302826741414
0.155890164123028
0.169551625008066
0.143145190821359
0.155459890620224
0.143139655462363
0.166040766289424
0.151036456549916
0.157240601001115
0.158772455543814
0.157946504891603
0.161353585291478
0.164966853579504
0.16741844632008
0.166917019767119
0.16215627737947
0.175455767468343
0.164330094050235
0.192524244938084
0.172564486672043
0.191303583995871
0.17149404468618
0.195692060621609
0.175655958503074
0.182543203480474
0.185525714552779
0.183499400634041
0.187561063489785
0.186212044020263
0.193061654099619
0.19203514413106
0.194694875720521
0.202873625171392
0.183474941555837
0.220373245799672
0.189834529432237
0.217585293633552
0.188564262055489
0.283321926747981
0.211631854730799
0.219463720189586
0.229262288001869
0.214393337325372
0.257559345795323
0.22610175435488
0.236192247134512
0.241233726875304
0.240421425702282
0.244078395406479
0.261620922607956
0.259127695875013
0.264849397145047
0.270240226830567
0.273318333245194
0.280358901799571
0.305961175373786
0.297530403990762
0.300870652393171
0.294033692262284
0.316067956492437
0.318423655914156
0.31573974038789
0.318313862851978
0.342252178884193
0.321029869574621
0.379094983815122
0.342091615566003
0.365440449503128
0.351494112384885
0.381221595480907
0.37460589761163
0.388640544636355
0.405654575765489
0.383329722798246
0.407956229874989
0.391802437178459
0.422814156713171
0.415244217609553
0.446760528421188
0.431736456514123
0.431829705934188
0.445487444064111
0.446450809328716
0.459142211403313
0.458496213090298
0.466676916127198
0.469788085519203
0.488278272208712
0.519470752298435
0.513175742332144
0.505349411163023
0.472742019329914
0.490913765597926
0.468394566456178
0.51269801960191
0.484756088414444
0.493605342401454
0.507033635741917
0.483136904370567
0.498372424420548
0.495825038482262
0.504057023731642
0.495036212157329
0.500018031084054
0.499724910639914
0.501423735656557
0.516211040696147
0.477022656663994
0.587422360388737
0.49414515137903
0.501167046781717
0.493011416602505
0.500919570905697
0.489799038689041
0.495941297971869
0.478280886143003
0.505417361561835
0.468467670024623
0.479948694333901
0.46599007168924
0.463689788326414
0.476910698020505
0.453637616533266
0.450285510154084
0.444107893427174
0.428609165183718
0.440042859910675
0.410522646174712
0.454158887781744
0.412870077664165
0.414274644723736
0.411084412779097
0.404693229885028
0.395419337393554
0.394407605450027
0.386165617915107
0.384766591055506
0.376087828240246
0.383699530638104
0.371460208625486
0.368520900298091
0.361405767830543
0.357666373455889
0.358354809695972
0.35025741853443
0.347746495920111
0.346272691776406
0.345965249042956
0.342033792592331
0.339933659226114
0.337430712482495
0.332829396191044
0.333618069139547
0.327162759677522
0.324072073239112
0.326102681435172
0.321616189044784
0.32017577429109
0.311459064532804
0.314978702058432
0.313697165987885
0.310917494526746
0.306862552559584
0.308291288875528
0.306401542863654
0.306640456990898
0.296239306585872
0.299434193827951
0.295482164833694
0.300446543542778
0.303810452776877
0.29575840036092
0.309537447782149
0.276171681247729
0.300676276970093
0.285557122455023
0.293201721030112
0.285180369807291
0.293344483236468
0.29468349131971
0.279510655519571
0.28160989940028
0.281915154181682
0.270918004872044
0.287481986185221
0.274764197878657
0.276032458025642
0.283721342820431
0.268170038477414
0.340508362520207
0.272843708092479
0.309462147633451
0.269809907949224
0.28022917705706
0.269308278303463
0.296327233800592
0.271559954186104
0.268431618882669
0.279037638890248
0.262368322651958
0.277929802581212
0.262527686758029
0.272243617818344
0.268784933843324
0.269061006638892
0.275166236563904
0.27424849754078
0.269322333756463
0.280313608130466
0.262304140796198
0.263763107350922
0.280057120499729
0.262070661964201
0.260017501588689
0.254027512068603
0.256396888863817
0.25504812701001
0.265662311561736
0.267129714716501
0.248290327460131
0.259648561221221
0.244976165140941
0.259793916517549
0.248375037473811
0.26094413082161
0.244399393111182
0.257553008881609
0.255728802636817
0.242801139928951
0.266633974011091
0.246587706540316
0.265564053054924
0.244939297725409
0.255505268467066
0.240498234651059
0.262625578441372
0.252047636986649
0.247739058662962
0.251437159869286
0.249127716127819
0.249640895390437
0.246982580327051
0.242046633713049
0.268205384617019
0.25037203504914
0.264512969812932
0.267200982263251
0.247108264143744
0.24444517477112
0.244198975308627
0.247681079196171
0.25528006162982
0.246593689611123
0.260597413435592
0.234199233033844
0.269489397526877
0.250078815761443
0.267227503300016
0.259606150610428
0.260096842470225
0.258866121047973
0.269743869427762
0.273014839831906
0.290907055322163
0.268451418552148
0.286919028003428
0.270827058444315
0.298961358072499
0.291630795546682
0.29730770324858
0.298007756307402
0.302792134848244
0.30568591395128
0.320027101955981
0.323030425281397
0.328460996830723
0.331743771831004
0.351491778137654
0.343166314692383
0.366744773137803
0.366325075415492
0.371394904832023
0.403535059269972
0.373739784983262
0.408517560562764
0.401947360609515
0.415606876817096
0.419483275610213
0.424528220739748
0.443151134231134
0.445035109252034
0.457623920891552
0.459151030800317
0.461107958263408
0.476371273167458
0.472932513352307
0.48427344681538
0.487506305886066
0.521534795460075
0.469068509700775
0.524700156757565
0.500110868422384
0.512657426833791
0.509378287020767
0.511019019529807
0.519118448866662
0.510090866683287
0.521402317256876
0.520836207499138
0.532322148431338
0.528126102720762
0.533598881290634
0.542243051139005
0.525847190715905
0.531455080905419
0.536700453728171
0.541980662986361
0.541067009388819
0.543435136379692
0.553574077765377
0.558281943574384
0.574080281747091
0.568176023146737
0.544358601732407
0.565609123751137
0.56007005557559
0.574538082157969
0.573261445516063
0.58333992968734
0.596698014367384
0.5907594132808
0.586617388917253
0.592438469968121
0.593895552679968
0.598552698979791
0.593589740306919
0.60417607156104
0.587893197282779
0.618384948035224
0.596934817101895
0.642646905893327
0.622077683807296
0.625275045709314
0.616905598394321
0.613177314728715
0.622712156875807
0.617274605151846
0.6172175557103
0.622481760883866
0.624200848893728
0.612771850805667
0.616200935956288
0.61961532081541
0.614921583649857
0.614927710159401
0.62282107420016
0.620801726523009
0.607317701007287
0.608646698679787
0.604395804767137
0.605150379345759
0.599359391296643
0.61229568006849
0.599671425852177
0.594861800059554
0.596685372788446
0.605276792289013
0.593215938888706
0.589497339436091
0.588426723984444
0.594228072386795
0.589814130440552
0.597480763557747
0.587326508242916
0.61539973795461
0.613370972968171
0.6021426406478
0.611031449984169
0.611278108599364
0.622063352039502
0.623682122161684
0.634086896303349
0.627818615553801
0.645605215672299
0.639831724386461
0.649670227780049
0.650571608686866
0.658910100075875
0.663940368067205
0.671714936835413
0.662416795133192
0.664027773991419
0.668764752683598
0.667634262563768
0.666318734631233
0.671734325087548
0.670723375405978
0.674816754100662
0.672944300760698
0.681229449134508
0.676628266981705
0.67576705409317
0.667302113121569
0.671509272103828
0.658879164684103
0.670777092904946
0.66152094797776
0.660382249457364
0.654111436988332
0.659916299856993
0.657847617349016
0.645229716306287
0.646644490560454
0.646333493426284
0.645137661700595
0.658190285484448
0.647974360962076
0.646761963061161
0.640606631446278
0.637336739109943
0.641274538904188
0.639603987354636
0.64024646952739
0.64416184096895
0.638196449756453
0.653118123764897
0.641897369261176
0.64276213732566
0.644655382094589
0.643812826928984
0.633074847802428
0.633610114061116
0.64074665736761
0.635198239989098
0.632974359980298
0.633100600809931
0.627513824246433
0.625846147822413
0.630225944627243
0.62349988313111
0.626681906296618
0.618194278239631
0.617128566677863
0.610389418132636
0.609667710126661
0.604886415254853
0.60325012416572
0.599673079235923
0.605588899175021
0.596563617283398
0.593599522909603
0.596423062669719
0.589177299866527
0.592373012699419
0.595857393234127
0.590461790921063
0.588072393577166
0.588102387536515
0.583921393023027
0.588791670011523
0.579452024415829
0.581036443386149
0.587691960679539
0.5769041332001
0.572841479558133
0.572460820520175
0.571535553163399
0.566069640214472
0.565905941460319
0.560704047088138
0.557022804749203
0.555554063432119
0.552291167050362
0.551006435882412
0.543745719821457
0.540345916886172
0.536034252487716
0.532210958590869
0.530291373598277
0.52600587551482
0.521727368767316
0.520017851310618
0.521244112054502
0.516208525511371
0.515159294517535
0.508493726278348
0.509063577174808
0.510768971959609
0.509571474336086
0.509662028092342
0.5103873737299
0.508434240891905
0.508042004595541
0.509380033313342
0.511139825758628
0.510151888605267
0.516705028688086
0.510148810965623
0.509801546413837
0.518056089169334
0.515179451234369
0.51644520127263
0.519477599063663
0.519808680340183
0.521609624845469
0.526796347171034
0.52711674997796
0.526336447055492
0.528749842052277
0.529491078822982
0.530327158787686
0.531595247917983
0.531973793637509
0.531639040935465
0.532794230494859
0.52992971170801
0.533236207722077
0.53222725836477
0.532439744082721
0.53085149249501
0.533131862303266
0.530374159259902
0.534688841096144
0.531164394374752
0.534581865378063
0.523985341039293
0.527944036997018
0.528957282904115
0.526458024245868
0.5280328060403
0.52833353186501
0.526319148158405
0.526228496886341
0.526974347284622
0.526617745667739
0.522959103326781
0.519663955732595
0.5193172305508
0.513543935472561
0.51499448018285
0.513791509412351
0.511082953442037
0.512817381137832
0.506598118903209
0.503082407533265
0.501526262369662
0.498955578369281
0.499487957639683
0.493312241534875
0.49221289664685
0.485930171384911
0.482133078749211
0.480835705094849
0.478802436990586
0.473555209283158
0.47157659031974
0.467685325994287
0.465766102863178
0.46069795569188
0.461781567791384
0.458674990960013
0.459613058417115
0.454058943266424
0.456850383743116
0.455755115110238
0.45368508133031
0.452855760214167
0.453729033228692
0.455717185332717
0.454200674810696
0.454305930825505
0.452961455242401
0.453946141557169
0.453072602238146
0.451230371476057
0.446487304400659
0.447436135415551
0.440173247737742
0.436108870550859
0.433406998376274
0.429415858254199
0.426024398183429
0.41905959002634
0.410198048835332
0.404736929728555
0.399369613698096
0.392308713276231
0.3888449057283
0.382054433374197
0.382899868467108
0.376648489373578
0.377332640305974
0.379358690911156
0.376166300670394
0.378464766567858
0.379209157643779
0.38541657669306
0.387843145570772
0.395783274615682
0.40514065933028
0.411063414683013
0.423667984006348
0.434597006093919
0.449406035091685
0.461942365716421
0.473841021450704
0.493869099646212
0.513138617588705
0.529515771663936
0.549838949398764
0.58018192051698
0.601336167337269
0.624662592807908
0.653765514719239
0.682426035681224
0.710156843953474
0.742259216503683
0.767252316987592
0.802647998182733
0.823984730361777
0.854570973487026
0.879994945828543
0.904567767774808
0.93028721928169
0.959976790373615
0.981770226647155
0.986226045013617
1.01301721879251
1.04324798603143
1.03445601833316
1.02871185262807
1.04438558844752
1.04062689291721
1.03018735721021
1.03501116716842
1.03125060719595
1.0226284011105
1.01029523909287
1.00918955386605
0.996514765318168
0.977334979346042
0.972437778689631
0.96015735472491
0.955494596937689
0.947666392011101
0.935712485720903
0.933207873554081
0.935074961299364
0.93684222012959
0.929043531221384
0.935287614652245
0.945719752052945
0.946122796444038
0.949713273538245
0.956843537808649
0.971677580688284
0.976840838365795
0.978412996372054
1.00210253481982
1.00521926949726
1.02662023379006
1.01744034239444
1.02582381732461
1.04408365189882
1.04504443991545
1.05435586161185
1.0580116372558
1.04829710952821
1.06471794644086
1.06628179980547
1.06679904029386
1.07949148037035
1.08642889973819
1.09423950928465
1.07592157217789
1.10118169418888
1.11457885671521
1.09669652917306
1.12896053309775
1.11389831375887
1.11370112284951
1.13513687979307
1.12085511531897
1.13856764120147
1.13160361837122
1.14139567595482
1.15115846715484
1.14579137462481
1.15167053543028
1.17880804445261
1.16200200978808
1.16766636952
1.18918159366316
1.21570309373217
1.19992036907191
1.22718520292796
1.28553514108347
1.29059352762534
1.32707528510692
1.34170583888529
1.38967526683457
1.42426977779331
1.46391483376109
1.50175061537918
1.52750858020308
1.53583708824489
1.53575286075163
1.60841704952236
1.64068401290219
1.63921143743829
1.67415723698522
1.57920955059669
1.65302477512474
1.64363228917788
1.63212358046602
1.61164846974449
1.63454248613815
1.58528191473819
1.56633040307222
1.56384532180597
1.58130929927922
1.54305093329898
1.58773817241262
1.5389343895782
1.59209895569535
1.64360656512063
1.57276500609661
1.58060175491534
1.60061781905789
1.59569951598088
1.65267290073065
1.65960032881368
1.71028414437849
1.71435495589763
1.73999018989785
1.76473263384342
1.80871976692609
1.78328668512913
1.79986090012255
1.80921290263
1.85504848165413
1.8173386901586
1.81425658045371
1.94931841873009
1.89248333148823
1.88711272688331
1.92101588953154
2.06126969513993
2.29726354983946
2.45433008241726
2.05070116291629
1.94406538860127
2.19283475796344
2.30534973124761
2.27984796765036
2.17116541649246
2.3464380441436
2.06146566448543
2.45640515941705
1.99523202419913
2.22019201071669
2.22404737857542
2.88451295957335
2.17837707012481
2.47593216057674
2.49935977008169
2.17227178105935
2.18756662240136
2.64822668838922
2.51569206865861
5
2.9267583883736
2.53542570820285
2.4226176668177
2.35424844593609
2.41718726122595
3.27206415621003
2.94083125691942
5
2.67498869225258
3.34854594784482
3.48695005519849
2.24741076595989
2.32909154713255
2.55171848056169
2.22375576562682
2.27601644072146
2.30416824636939
2.71554488542794
2.11783274818378
2.73824948638628
2.16619628185568
2.29301046060329
2.33370249585834
2.83515336780455
2.18320703522747
2.38611306307421
2.1543592419878
2.75912581431566
2.07849799755812
2.51787469199877
1.98187949286981
2.22976817980075
1.95307461068662
2.10511698727949
1.83919744422629
2.05624184885686
1.84506498011594
1.76902955641118
1.71959848513826
1.71834703866781
1.5580566603401
1.72132706716194
1.49907738739326
1.64084656263062
1.50423282117235
1.4768083578818
1.37948794003867
1.43622963492408
1.35009242900434
1.34402298380805
1.25330070080674
1.3210263943464
1.26125573849231
1.19599185316519
1.14946099863703
1.16092218030409
1.09337754619353
1.08803195917555
1.03937379466862
1.01446836092896
0.972123792348369
0.974922235799175
0.937714241032499
0.906107301688972
0.880992975109154
0.880485570419382
0.866403299867871
0.859104120023164
0.82699188155868
0.831426922646116
0.808683830076164
0.804045440980691
0.816059988887938
0.81351377303397
0.793891501586549
0.799261760939179
0.794375487675438
0.807803023496983
0.820754980996551
0.810601976990084
0.821171131065235
0.843439319288159
0.851332979853702
0.867012478295022
0.846108605816456
0.870015770034765
0.853967875482561
0.885909669836624
0.872679837905388
0.884159198896045
0.867774647736625
0.872525981926655
0.858559292485235
0.866667496492429
0.865189878014321
0.892724978993424
0.888398076415631
0.882400728387784
0.863774354062834
0.888112475704272
0.883607356626145
0.877696746361682
0.870397502100179
0.885854478243351
0.863256597953916
0.874194779750467
0.854210409262116
0.862107063000912
0.848145336099316
0.85691690438125
0.846673859868398
0.834832071052413
0.818021408341203
0.816721951439145
0.791623029921097
0.817609716761141
0.790741709637882
0.799373726221141
0.797537105199223
0.772511860038402
0.782024311222551
0.796539372759062
0.785407380902239
0.820613415823117
0.796164356600161
0.813898763213939
0.786224871605519
0.827191029026498
0.808792955735552
0.846108911372814
0.837888673469435
0.860803983840849
0.83700249453752
0.83904349591341
0.824668219296551
0.846428775858409
0.829090505854063
0.826876091461097
0.791782764981701
0.777565674165832
0.781369105468
0.785338542084785
0.769777573091515
0.763513592245268
0.743743872920335
0.749167657847267
0.744291479502397
0.756777948496611
0.752086615815261
0.762457262455618
0.725188449517737
0.741429647326717
0.744974729248567
0.765530000695594
0.759494973965038
0.769331929397575
0.753414687588477
0.758467521773129
0.77080687119648
0.761567938194911
0.768280699555749
0.785353416481572
0.790373210445707
0.780766965050528
0.769389802144776
0.783700172381342
0.791689325157676
0.786370207091579
0.80208886019191
0.798249022850654
0.778953788462428
0.783847325405022
0.796717494079191
0.823207059874354
0.805396061003176
0.806028611149021
0.800078780486977
0.781722672071687
0.782782907885344
0.819145088531511
0.806978374784642
0.790134464042158
0.793935175816083
0.838591548691708
0.786427775405474
0.809245561452787
0.781677336612063
0.787836888122415
0.777506552669197
0.788652896313731
0.788029648939322
0.792652033216867
0.781170221356651
0.784643054507858
0.755460293958324
0.759358971399696
0.730150964398177
0.766641015776979
0.736942216816571
0.736112554138517
0.714136418440921
0.733913264596668
0.721480166795536
0.738567669273917
0.723296745604425
0.756944148950878
0.732608239416359
0.705052046251363
0.698811397584274
0.719682705974506
0.722080497037184
0.728647460953213
0.735157167397943
0.740710668393118
0.720552483494301
0.736907771347814
0.718708284889497
0.76834596954537
0.679585283173133
0.770440013079301
0.751373262210207
0.738128277454602
0.742523331070436
0.734187734093899
0.751646286410353
0.743460410023614
0.764959662736862
0.761014939626662
0.762327479393699
0.776907957535186
0.747858350426555
0.826929915277234
0.768639073237814
0.799789061901548
0.801693983068594
0.850557434429212
0.789498077673729
0.827025004649021
0.820715077840952
0.85109577259746
0.875098369071471
0.896875201961849
0.889360029784629
0.915917756328975
0.87272045891371
0.933130786860298
0.914162617671761
0.981750490811954
0.936773564142147
0.981017495484937
0.950975047006391
1.02538427996147
1.05593793141506
1.0331567703835
1.0152335466958
1.06445891568523
1.04931603828792
1.03831504950954
0.999940686922398
1.06034297138598
1.00672453654353
1.08199183629317
0.966647537169911
1.05815991334892
1.04040047545902
1.11286707942155
1.01121372482014
1.11137993777552
1.06332014313222
1.0492760224913
1.07753027641287
1.22952393794061
1.14142354525167
1.20530567708534
1.01297073090684
1.08704949075987
1.01915157851572
1.108702547211
1.05297139524985
0.988400705404251
0.971801607327696
1.1785150107503
1.07730480011351
1.14612383964409
1.00003942738844
1.20258913577558
1.04059494934618
0.995202758758889
1.04450947467389
1.01682274471841
1.0359422436659
1.03042487607059
0.98008739642597
1.08098816459005
0.943474415361478
1.11781796986704
1.01259777210045
1.08554710615677
0.981278358782261
1.05451084925098
1.06780671197585
1.06950077097556
1.00457872653266
1.06757291040792
1.05555425646335
1.06333364278207
1.00741691886881
1.25122472621507
1.02161880460908
1.15214538444591
1.07046760226109
1.2345224956089
0.96783738114725
1.05926368597101
0.982740161254084
1.14508406103659
1.06783050442882
1.15053639087949
1.16778735352205
1.2959743540315
1.12831510884645
1.19642989806485
1.2498167277398
1.16322010585406
0.935246408417405
1.18438827598406
1.26808205138955
1.21025111559604
1.16977862454831
2.04760539525924
1.31074702545033
1.27914088321078
1.10239629599348
1.76916401332244
1.30689800298354
1.3737458857241
1.25915067909449
1.44829598154751
1.23735944023723
1.3781745690903
1.26281455452901
1.33327947251409
1.49272810237197
1.73434844282726
1.9380233089447
1.34948746472593
1.21809320590813
1.52279729687433
1.09591431922954
1.31663483670474
1.19387977451355
1.35004475256661
1.41762719944327
1.79455217996968
1.07453746871349
1.72945464299015
2.37644444832035
1.18446915195711
1.14901424130872
1.70632405020767
1.1170895876707
1.70525320082236
1.09696105780725
0.916334628257311
1.19248386057509
2.13162640696148
1.23623826901088
5
1.38296274351502
1.29956933158181
1.0863276110341
5
1.51376255829688
0.932801498977458
0.925357254426192
1.34209520701599
0.692655656234323
2.49246679243174
1.64734083523264
1.36160969489645
1.07350335806813
1.2312220572338
1.25296245067932
3.05295860795593
5
5
0.948027064017211
2.00645641224903
1.16701718338512
1.98251194771259
2.99518813821266
5
1.7697410583555
5
1.33061949123632
