3596
4000.36533379555
650.420452594757
1
2
2
0.0509862783030664
0.0362200674706096
0.0604014371544229
0.0387187734275259
0.0553846676862626
0.0359814269895328
0.0543794142769783
0.0414733746025634
0.0554649811020453
0.0287000641647339
0.0427154246021693
0.0369302985541117
0.0517630394341109
0.0302067108462484
0.0423694436035266
0.0390775590100987
0.0481822498791876
0.0341067958349391
0.0542189763391033
0.0380099688458968
0.05052169806357
0.0357757607486434
0.0611169730103623
0.0370760076885986
0.0455427497325172
0.0385641625482624
0.0576588983553103
0.0372152340336175
0.053605115010637
0.0443907734786917
0.0520455241395353
0.0351469642426462
0.0480471639088953
0.0477080702462411
0.0524628304229501
0.0331282059859786
0.0427238691601133
0.0399980403656618
0.0567107805486589
0.0386925695042976
0.0538601303703014
0.0424922248908278
0.0523885348623969
0.0360877692620688
0.0480731120648806
0.0346792617764271
0.04369866656068
0.0326544040307748
0.054253144502443
0.0339654877797387
0.0590757957642889
0.0409908841546763
0.0515644424008249
0.0439109945946829
0.0428529466141533
0.0385435072237448
0.0481732320697937
0.0355831172865775
0.0521929228055025
0.0443896073859306
0.046268536692693
0.0287214727542561
0.0449015142691218
0.0369107844712473
0.0383645519337966
0.0308448931677516
0.0428774041805666
0.0423336256376993
0.0485985789281385
0.0456966212023388
0.0444307265712986
0.0423322815764237
0.0562129456981313
0.0296632799483136
0.059255300109863
0.0372234696986541
0.0477099501074234
0.03256974819306
0.0457656394083698
0.0311204475366407
0.0518690241508794
0.0302316774081763
0.0485004698565508
0.0372113147080618
0.0398589404289726
0.0353793647780479
0.0517622689957641
0.0247930251131101
0.0622622893880655
0.0297850014920083
0.0412610450914162
0.0382752316663579
0.0429790901449244
0.033047253500462
0.0415954663130302
0.0313514912059875
0.0479722457627936
0.027617086465818
0.0528071722094835
0.0256134010297993
0.0589427933885507
0.0205488217776208
0.0710350114424449
0.0258488990361534
0.0488173597415844
0.0441143241515972
0.023267937086337
0.0484664008973219
0.0452467726020202
0.037203710191926
0.0394158079290567
0.0308059627372925
0.0341982262229424
0.0265186700165865
0.0519780220867664
0.0411795040060141
0.0569593138812671
0.0312645550872704
0.0429860008617102
0.0289472875911713
0.0515387131449277
0.0139248028968074
0.0719605479271947
0.0161036403303111
0.0430758951153653
0.0270881238548257
0.0506260894624937
0.0216174901806979
0.0497067587786565
0.0219421462992371
0.0462295216995611
0.0202240517394818
0.0488571001163202
0.019168679384399
0.0773567822544049
0.0293990130948764
0.0471417312072422
0.0300028095656884
0.0335228852938108
0.0279621424299412
0.0356587612574252
0.0296521661640958
0.0439208238889833
0.0282525006164
0.0614654831453887
0.0233368337940063
0.0394175265981056
0.0299156700602204
0.0509801528425255
0.0147091267452921
0.0422238252182796
0.0305237445280029
0.0402675452197227
0.0274537874552251
0.0529615855667953
-0.00986106024855641
0.089027495212898
-0.00143839311010259
0.073531421361615
0.0232303203254224
0.0449853161691092
0.02280183181053
0.0372435153229312
0.0372269825530467
0.0414145811084451
0.0370127488294763
0.038796958946407
0.0417976191834066
0.0426285791980019
0.0310151772846573
0.0396130113782578
0.0334844006536422
0.0402488517548538
0.0314437925179099
0.0481000631866952
0.0112632202805408
0.0636077062377351
0.0155904844401431
0.0398013246312229
0.0142329675785444
0.0469253282096295
0.0243463896449986
0.0384504082507258
0.0255975115207647
0.0446891891627968
0.0199206937688128
0.0473697298857896
0.0214099619743959
0.0446057364036922
0.025693399265683
0.0654750455290114
0.020874227067048
0.0538754471775435
0.0199417291898827
0.0434920971909012
0.0269137792836378
0.0402095551461856
0.0352530782883222
0.0311435435365046
0.0292100881971088
0.0367113480276665
0.0259871554174191
0.0478896733242204
0.0256779293943462
0.046058771420692
0.0150348101869546
0.0409192859334649
0.0310016667625366
0.038326689976903
0.02588124884784
0.0446166270463844
0.032426651166439
0.0374116399777071
0.0442283792771836
0.032653953350498
0.0331548261623913
0.029068818329571
0.0337511058726166
0.0408586186942089
0.0261504134381976
0.0388248378366793
0.0266925016286457
0.0469179200219907
0.0319625590843716
0.0304666400726059
0.0307937112493295
0.0383239200740587
0.0289001078787068
0.0433965760250643
0.0320997085785152
0.0351984602938137
0.0359199548700564
0.0429777966207001
0.025896745834905
0.0471255447578734
0.0299603464365211
0.0554435980993352
0.0315996912041891
0.0402931554077207
0.0261225535119356
0.0387760951801217
0.0251032217041142
0.04262994679558
0.0247750051659144
0.0408796336691328
0.031451740637553
0.0454121555372369
0.0320515935842444
0.0320539398873389
0.0456717285464463
0.0301296132974706
0.0566181151595409
0.0295846224241262
0.0373522433183026
0.0314589316455688
0.0496200356620072
0.0271930211789085
0.0381797940961168
0.0432234758779736
0.0398919746439022
0.0351257378844389
0.0379465484783709
0.0335422519190123
0.0409309768676554
0.0520213604984236
0.0368723234471517
0.0672769858968555
0.0242306119329484
0.0477388309768283
0.0440812892997539
0.0325756211243423
0.0497787230006796
0.0400199631534095
0.0201481602507008
0.0521947225862072
0.0394746994733198
0.0401319012207649
0.0278387822810242
0.0453909581367508
0.0267266144438355
0.062707001757571
0.0306116753162287
0.0791284518247215
0.0440382344834243
0.039955381653768
0.0559820826397207
0.0466971376085423
0.0491481478526605
0.0252700496685244
0.0419084746756059
0.0386282931154544
0.0497829010323914
0.0314576267533947
0.0494343617696211
0.0317332593460704
0.0532416161040445
0.0428780571030888
0.0411950410399152
0.0452505165655661
0.0399229049196512
0.046632569735996
0.0467328792204984
0.0437616261285342
0.0394900686172994
0.0470502144477955
0.0387332777470709
0.0579666103945489
0.0382268752879613
0.0479777775281807
0.0526328367461282
0.0369465577995573
0.0393001447219757
0.0480681007468788
0.044603376526199
0.0443412680668938
0.0470203599274285
0.0483645974088372
0.0421251881182063
0.0589187071945427
0.0393793509875204
0.0541187730045243
0.0440226335056059
0.0581618315669676
0.0453128909650636
0.0526758388570439
0.0511538759902429
0.056962374087784
0.0472735286385457
0.0486421692876621
0.0544458694935252
0.0493985100126052
0.0450157346130478
0.0715424243319671
0.0422785370111398
0.074008763711237
0.0472503602488984
0.0654376634391091
0.0568212126564228
0.0566145211771122
0.0527000112376942
0.0566973684794605
0.0580917698436775
0.0721428260179889
0.0617312552473016
0.0714814464591826
0.0739924093702223
0.0839908806352381
0.0636756341835065
0.073092773901419
0.0734443092531991
0.0633994981432359
0.0852910361643393
0.051644133858104
0.088359706490846
0.0678985594090193
0.0677844748289302
0.083061234492097
0.0729894437910595
0.0792191636790998
0.0800047678963287
0.0907343916187724
0.0754615003466576
0.0909334450864061
0.0750920742111592
0.097241982018582
0.0823659597943047
0.100101327332957
0.0933558515651722
0.105415721790706
0.100140569338332
0.106262708990534
0.0896899820586351
0.11739172593911
0.105096781847177
0.137510416749407
0.0648312552012105
0.125695322256549
0.10960208859401
0.117338131202956
0.11562476424588
0.115516723842204
0.117223070713379
0.122208722856605
0.120778170436841
0.128850695429151
0.125336668093684
0.124708231610823
0.134960853919825
0.135810629021994
0.129641819053902
0.134878680794468
0.147150659109876
0.140365911843182
0.151619714385322
0.136793434458147
0.159127459856075
0.134189238414054
0.183198400904314
0.153470444903392
0.145884190735337
0.158976277491267
0.167597594949567
0.158158324882998
0.163713011431756
0.170113057874086
0.176230914329397
0.184894085021191
0.177774545167643
0.203236167876206
0.183040582811812
0.183149224897324
0.191095244037007
0.187520984001581
0.201304730012363
0.200064387136653
0.197315580456389
0.193357373299191
0.218897814797022
0.200277573931271
0.221691169737458
0.234919584836819
0.213813162597814
0.222197049619845
0.203096408294382
0.221793799267892
0.222551340133179
0.236183655312242
0.223791059244984
0.232631010365072
0.235660120509753
0.245234292178839
0.247269629139247
0.255288046245095
0.251633902513281
0.261834091170297
0.26115740659621
0.251492021258722
0.277166583900044
0.255071619114124
0.284385597149209
0.275500407713521
0.285466643701707
0.287378770407845
0.260855719488255
0.284804522047688
0.273224316699221
0.284676579250499
0.284598412592206
0.296863325719296
0.3035627695268
0.310726069552781
0.310496011699893
0.316380962335521
0.313201107659604
0.328258086925635
0.322272201796253
0.325746345814748
0.341302256619222
0.340182934891049
0.354750912016818
0.342332756309863
0.368953680453769
0.361276850338184
0.36147253172007
0.360514791593641
0.364361088255261
0.369155576198542
0.367329151124103
0.364473932479213
0.363913326438699
0.37868556001719
0.383275979977541
0.411732984090596
0.395355481285938
0.393726834181203
0.394807286389509
0.400834445853593
0.428233334635904
0.400386355257922
0.397488530488099
0.426291802061977
0.421560524008127
0.423206532633802
0.425245582697794
0.434396939953085
0.439726474337231
0.434409962877463
0.440733197187052
0.451448463990095
0.470247485984046
0.471357198193455
0.464635901558124
0.48815414509491
0.483273797618046
0.471014277173776
0.504105966591058
0.493770852023688
0.482694651794028
0.503964338858146
0.505161306559206
0.496562339523605
0.526390204065131
0.5101638837801
0.531030808421673
0.516712649120864
0.523108729223004
0.544171352817675
0.555423106580191
0.534660924315082
0.548115716799425
0.534338232282065
0.570470390911141
0.551862799171338
0.554697079659856
0.583221792309313
0.587251208947186
0.551493321774155
0.584181261834807
0.606595403677469
0.597290343577184
0.577171089175822
0.603781790189492
0.595074596203393
0.615812452529459
0.616711922435486
0.638291327693286
0.613015792481975
0.627109123806039
0.619555184948751
0.616523952357496
0.613989450413075
0.637966035607502
0.641578946243881
0.661835239326917
0.656809668911461
0.689971982296024
0.695242387236885
0.673923017675817
0.650716410027382
0.68596460163833
0.670709850110624
0.692451815389988
0.701164860600684
0.752998168249647
0.706667939815971
0.713526225706093
0.750951614786505
0.76362509398967
0.691475323815891
0.722248053709261
0.706488175877103
0.752352278527564
0.743336279325329
0.788802572195004
0.785913514497745
0.769634766809744
0.73224064270988
0.81049573940545
0.77467756530656
0.816172993865939
0.77491822180933
0.790084038739557
0.773480920830479
0.793721633288537
0.740091155049083
0.801529664303808
0.796579409874929
0.804529644616234
0.766618987427355
0.845566640466902
0.821698220830807
0.822454664231114
0.840282897871987
0.84974633221369
0.816035402338301
0.909238402079172
0.855515961783662
0.95948162405502
0.884695779347083
0.924042665555837
0.863149516087055
0.880478002514048
0.839344553775938
0.941489327099155
0.907800480765245
0.898509829656712
0.886819257099576
0.922990621509488
0.884255010181946
0.957750169336651
0.889842068295835
0.942720838648698
0.884257390269348
0.950435365487964
0.911859975258363
0.933939496459746
0.922180508924654
0.969584782881571
0.934251487276943
0.933659538106539
0.994560160181536
1.00130472473167
0.89247994796456
0.970497986487607
0.91648373019924
0.96350273871
0.933401185853618
1.02159753104859
0.99371652070564
1.0339183190577
0.953107969079531
1.03606200801347
1.02584074934738
1.06947103468452
0.97217408637859
1.0552385402994
0.998185713236634
1.08579263686556
1.03355075027386
1.13258873935915
1.00361100967597
1.04008205800713
1.0027931652845
1.1169549379184
1.07989026641381
1.04277101326875
1.03858205314703
1.07153042227209
1.00372955524091
1.0343111044471
1.06411065999821
1.1574057596309
1.04301033770915
1.1211290066233
1.0611536804597
1.12769618825592
1.05497107930566
1.09654659749021
1.07540200997601
1.22561348371074
1.09251152465353
1.17276673256402
1.02786548460871
1.17821094569373
1.13376537952883
1.21184828916968
1.12754553844828
1.18796189544827
1.10337640874805
1.18621876378871
1.08139076680804
1.17862996171102
1.11098884544185
1.27712716240864
1.22396260637024
1.27246020231807
1.11566814118585
1.19542210178258
1.17357766281682
1.28915483475139
1.1888603431584
1.23822030866032
1.13262305089902
1.21716731611718
1.20225702432145
1.29766779241677
1.09096582286362
1.25511926517659
1.24428954441875
1.36492860875564
1.18754693950008
1.24770434930682
1.16803849357214
1.31837955194224
1.15807329793269
1.20521635828679
1.190294547188
1.30234239031347
1.17158995132474
1.36505795164609
1.21913875556325
1.39664138166978
1.22949010278098
1.2424894622639
1.21732954129639
1.34591160413454
1.25029585923323
1.23405025608385
1.20762579583475
1.34238294538425
1.18694470873709
1.32211101807519
1.24677040164257
1.25452438274057
1.24271335769683
1.30196861873004
1.26060269957084
1.28488784366635
1.36791211442844
1.3511570359851
1.2558854333666
1.37417355977742
1.25167764786075
1.40454447658568
1.22215816948885
1.35843298419557
1.20198391745706
1.2763716720615
1.23322031714014
1.27440347482507
1.23204275160606
1.27369885439647
1.31572032472759
1.36194484694792
1.19167072813036
1.36510865880006
1.24798523438366
1.33698828468986
1.27012156870646
1.24471338727593
1.2195282591551
1.40279455084674
1.15815634715517
1.33958115417785
1.25348348936148
1.36661093915836
1.28681999045935
1.38676335430919
1.27690116628765
1.42913356411448
1.32346433989753
1.36951682336451
1.38826256683788
1.31046213594089
1.24771649548777
1.39217648178475
1.22074112765531
1.36193573254301
1.33827347597399
1.37268043377642
1.25547049052908
1.38428275003262
1.25350608027873
1.28231066641889
1.21393654782875
1.27893718196449
1.29971749292372
1.40354410464418
1.23279389347396
1.32011919752131
1.31602114187985
1.32236740789613
1.32290881906905
1.4234242548849
1.30812288094855
1.4431229814723
1.23869803211964
1.3517528575164
1.28121233742956
1.36466439090814
1.33244063777615
1.33471515714856
1.26686550120581
1.56848788156454
1.27247080987758
1.44341245171719
1.29145543428043
1.37951998568427
1.26238073529114
1.41152008036841
1.24575858170724
1.32603560178921
1.34681231082093
1.27334314715487
1.31897138092317
1.43538784096263
1.26069905906399
1.30625839138882
1.25425550930803
1.26922751906789
1.21267947542069
1.35785081146173
1.30743160461915
1.41868947851009
1.34663691511219
1.36680555977693
1.31181278889423
1.35164161830011
1.2400435365074
1.27109727686121
1.2971840806462
1.34460056492718
1.25881460810805
1.42788493041932
1.22227417213969
1.4487035756873
1.24932431981403
1.35840550824948
1.25877968983812
1.35559405060553
1.24189653475906
1.29893018312533
1.22275689508847
1.29766834022626
1.2596990199173
1.40817493253327
1.21741579161311
1.3543255948606
1.21917365437784
1.28008795726235
1.22426462029875
1.31016951180429
1.20143763061952
1.27220526717889
1.22129106999524
1.32705208768961
1.26667742295174
1.2659296651684
1.26394787796104
1.24531108667148
1.18718544786378
1.44650138613119
1.23018271134524
1.35522110729371
1.25627761194294
1.27517208792162
1.19407280015779
1.32843972879672
1.19929458823478
1.37895440237902
1.21110752222813
1.28614744603924
1.20536714960173
1.22550590597309
1.19913446134919
1.21737377424589
1.26702539797815
1.22899838078683
1.14249375406672
1.29754798467373
1.10522973520277
1.24401420691842
1.18909055953749
1.25310638790188
1.09893560551294
1.2217150572108
1.16561637589007
1.18092182309579
1.19547850384266
1.23360259263921
1.12643771372343
1.17871161582202
1.21189565337208
1.23202922706665
1.1289976077713
1.27017253373104
1.12926053638189
1.15531569340169
1.16658786272476
1.19136826716847
1.13055075782735
1.15565989632133
1.10810479655538
1.12888561779709
1.13646290626972
1.14176890567183
1.09117836880678
1.09320447115824
1.04829196216568
1.11266989185726
1.07423555473008
1.12799849893882
1.09555555739831
1.15089948047683
1.08105655527782
1.09572983771668
1.05563372023776
1.05467703133917
1.05045541945591
1.07741117525607
1.02883337203174
1.09186174689354
1.02097520650085
1.09565468520792
1.06787678934688
1.02430293976539
1.05485651986333
1.07263869399879
0.98322626311983
1.04941857587373
0.996095681308097
1.00330312657225
1.01022753921476
1.05041114250858
0.999295581001068
1.04269326136222
1.01102362354402
1.01093510958113
0.953298488824601
0.961847943206994
0.977290377345705
0.996695729916493
0.938957973810064
0.960657810071265
0.945151957966884
0.989226049364734
0.911233192857231
0.962769650157827
0.927533686626883
0.959798226971781
0.943851322728843
0.962607105651915
0.949972463893899
0.912271779499175
0.875704755618678
0.927837445536928
0.88867871201157
0.92707130873151
0.906989639677779
0.919993442458443
0.887757856668218
0.918530198307235
0.865668564553726
0.905694166868711
0.873430308581918
0.9005730537045
0.831302548820382
0.888429582238874
0.860594480199214
0.881363229855401
0.84138382611588
0.866321986686432
0.809609855072191
0.84495516170662
0.850210384654399
0.844813685355217
0.823354500880678
0.831507623362644
0.799117326607468
0.817568806039209
0.820657488937394
0.818598906660757
0.793088029590531
0.809034443827097
0.790518566159934
0.836462614054602
0.781190486282886
0.798043210933619
0.784943282550951
0.784246254822378
0.771223075408264
0.773665496243229
0.750082661288938
0.75898557580129
0.758969265626174
0.754478674260766
0.740730751922485
0.759833955903758
0.73136519449403
0.747514786129639
0.737923832255974
0.747213021033088
0.728269493355763
0.747553001242095
0.712385328482764
0.729995568847399
0.701924107705887
0.724976666998912
0.692422907882706
0.696029129448061
0.691443134273619
0.713461205923412
0.68693886119598
0.71042627210377
0.668884846472992
0.690149157948099
0.687932514281384
0.693664322936056
0.677846475621067
0.681047736089658
0.657383355716261
0.669697525190485
0.651518786117326
0.686382977930863
0.653094406204747
0.655968236176153
0.65529138990805
0.664599764173927
0.628301681720832
0.64603781037386
0.643624070546231
0.640266645088958
0.625116524031397
0.634837108084486
0.605361274556117
0.62449945074569
0.619607999694839
0.610726494125454
0.610288390608983
0.61200822328321
0.603956106218049
0.62005467100136
0.591527067867165
0.609678175727711
0.599039342310843
0.605501845139749
0.582402440756157
0.592391942463609
0.58001763068641
0.593707288531113
0.575663364167365
0.583618044103964
0.564821762661703
0.570759533835808
0.556764151777744
0.567403763606128
0.554085519438534
0.564133169025052
0.550449659037569
0.566841500803228
0.546304698785221
0.549421889471042
0.540219190258983
0.551786262094952
0.540587308927458
0.54881874946766
0.538148895448597
0.547069364480262
0.520241675425145
0.537091643389253
0.521054300002117
0.531263946574119
0.514484615671665
0.519807124173889
0.506730350269474
0.515084765193808
0.507079430741877
0.512459203683441
0.492746515242016
0.513524109690288
0.501664208414342
0.501208460351054
0.477706681609448
0.505584912780604
0.483951380387463
0.492036010792365
0.483963826581423
0.490313538747096
0.476918306572186
0.480441926462981
0.467234757815398
0.472988089714505
0.457680179420679
0.479524389884661
0.467805807173382
0.477692449771927
0.469433284455614
0.467793242914297
0.463083536737316
0.46715871717855
0.457512472606311
0.462231136011281
0.458037842486299
0.466381986854961
0.454161928958217
0.458606446069484
0.446988566277835
0.45088999524614
0.443749309884715
0.449104922848747
0.449428654117918
0.451845469793751
0.436625697298169
0.44678755985242
0.432825782512555
0.44899454726896
0.434375777807894
0.443786794049947
0.435589560006002
0.443695642976565
0.435163065542593
0.446178607500593
0.423182333898132
0.444278598157599
0.433133864561743
0.444613328751358
0.427311146407724
0.43843132240733
0.441628008462253
0.446045840066825
0.441524437390354
0.453448430757874
0.445463063427664
0.448147332355112
0.453799648919431
0.468195395778803
0.45024829606662
0.457102464602024
0.456719530103088
0.467875102096766
0.456890274108506
0.469038341129366
0.46087328746352
0.469598922048463
0.459003099965907
0.474716213925332
0.463913708736854
0.47378689210484
0.471681874042473
0.473756706197717
0.46333506730051
0.485271993984488
0.477756382377651
0.489313859218364
0.476151251685509
0.479264807407626
0.484047910069046
0.491250011366664
0.493462893828703
0.500079527370078
0.501377561301741
0.503262442643534
0.485272948358831
0.509581241236262
0.503865786770677
0.519747459644378
0.516949607310727
0.522668867844638
0.517536569533439
0.523933367472346
0.528844187964275
0.53528499109991
0.522726084442059
0.541304043639986
0.54369955755063
0.546338891907651
0.539681434224376
0.554848428729774
0.548302992655791
0.557991991871232
0.559692673911698
0.579765335147574
0.560101893914403
0.585165332968743
0.56863571889876
0.580511584929597
0.572288216209167
0.584703937609587
0.572514884862717
0.592383851632025
0.577444247225636
0.595004490208637
0.581928475815873
0.591225552609413
0.570557848491138
0.583095771236401
0.576371915602837
0.594769550025777
0.585369901653009
0.585766126372277
0.581351147359722
0.585421300293772
0.581854527270523
0.586992719955225
0.578758433542563
0.584961781303014
0.566032236592904
0.574096919008827
0.573450453254947
0.581980889185565
0.58011507966276
0.578315115588514
0.570674091968533
0.592265510680584
0.574823907696099
0.57692577463348
0.578375625204793
0.586961446361275
0.571545815531338
0.578194016407257
0.564774972853152
0.58147211047024
0.569640490365296
0.585403202477228
0.575395952390554
0.575870556296668
0.576089741480607
0.594336271707053
0.579522955536184
0.586232944712016
0.586147263201961
0.583399971361547
0.579825047110165
0.588041121231411
0.577157845215935
0.589727309818566
0.570990404169307
0.579224453587933
0.576675645102124
0.582504469041806
0.576131689503085
0.577451634189562
0.560825371709232
0.576444934166526
0.576525536774712
0.579388624200014
0.564101248295116
0.568756508843062
0.555876603302862
0.55943709435056
0.56435510774926
0.565176094899774
0.536613452266912
0.554173018311566
0.554410097154883
0.553819827626698
0.538168039249614
0.537865577546426
0.535536348828662
0.536172362257502
0.526480112367552
0.533030720860189
0.515151610593884
0.518036231086063
0.503017026870416
0.511006184739635
0.500499149165354
0.517587337213997
0.499541511127834
0.506850450447678
0.498345578689749
0.497306610932546
0.489394574800274
0.490894535093227
0.475933686117766
0.473040077032524
0.471379196385618
0.475864647414488
0.46627590621105
0.466000346019228
0.461619053203976
0.464631004621471
0.450334274706497
0.457202283598632
0.44592486674875
0.447944890508746
0.452703350723583
0.451892315501876
0.443200806505173
0.446808805024553
0.434824403736915
0.440670416633465
0.427262592480069
0.433794276640191
0.426650592932475
0.425689561355545
0.424895701416422
0.423755100169889
0.413677584580559
0.424311228283708
0.417339185278132
0.421252946287726
0.40763480719689
0.415915765871036
0.407580843801551
0.405371346079953
0.401032282401313
0.408920475098851
0.404070479409714
0.402194088351629
0.395138808879544
0.404923884684853
0.391700196515969
0.400503933307199
0.39167514676302
0.389830070270794
0.381763941040255
0.390992302022583
0.385934523799337
0.386678154570976
0.381068250009788
0.380298531070677
0.380331148787096
0.386885616935263
0.373838654828748
0.383836419902369
0.381228409097193
0.38018291445037
0.376581853803202
0.385318387525755
0.37270098584669
0.375948962067302
0.364852353172002
0.37326417969069
0.368291556617065
0.368428076398337
0.366754760277234
0.369894327143997
0.357888986260105
0.364486759408263
0.361396899414097
0.365091775070582
0.354209441439227
0.362495896875369
0.355141858873085
0.354724425210049
0.352377949547595
0.357679215726629
0.353039675550845
0.354673982991733
0.349546734197322
0.355544275833033
0.34495423911835
0.345509690602569
0.345221719708789
0.350660299398608
0.342134188341026
0.345815442494015
0.346154384440165
0.349050378155844
0.343732488800328
0.346369385378654
0.342787114544861
0.341450071265911
0.340722975600561
0.344195828201404
0.339336435611557
0.339341624727897
0.338923273323295
0.340237110312981
0.334353893865829
0.337077375510687
0.330964065992221
0.326605524371548
0.334186708609499
0.334449907025078
0.329202989178095
0.335067812567447
0.326379866884228
0.335730444225867
0.326971442246156
0.325981237332805
0.32548597443355
0.329690321217987
0.327518657138824
0.328870153042839
0.324091136159141
0.325882230907395
0.321515354170759
0.324151922332414
0.322639395983142
0.324229477375088
0.321361026595512
0.324137318805696
0.32246754613883
0.320876621082927
0.31570492178696
0.319472998648051
0.317620150162221
0.326898068433524
0.322402066771218
0.326816981367165
0.325218590284935
0.325208187975954
0.313658306454947
0.315472155760414
0.316981554297586
0.318480702325013
0.316256851254811
0.316007936145248
0.314140077570593
0.321157309594013
0.311707182982503
0.313850302279
0.315006795937912
0.3194873762664
0.312883673796752
0.313724811737898
0.307104469067826
0.309317508835018
0.307623174792407
0.311918074388717
0.307083680158363
0.309742929607344
0.304062246614458
0.306734974499963
0.303245166526789
0.305982670815486
0.305788155659421
0.305791620804669
0.30285150270632
0.309077959225726
0.306293665273679
0.3034839956067
0.300779659437081
0.300082351907681
0.299470707167688
0.300069689040672
0.30066130783306
0.302694931302836
0.297975929476782
0.298957785093448
0.293815302488947
0.295859270028953
0.294748762057557
0.299777528760131
0.296035114230334
0.295574075911511
0.29541405761794
0.290165039372164
0.287452482182275
0.296618322001741
0.291108524723531
0.292662428664806
0.294918189381349
0.290258601932301
0.287544305890651
0.291783048254262
0.285161592143455
0.287473703087291
0.282406471611997
0.28657802273517
0.286008891292477
0.283791127627814
0.279474358287177
0.281283560866235
0.281543346984772
0.27992477087812
0.279570106752484
0.279781253015407
0.273585852606993
0.278878111878698
0.276054853710919
0.274885880007327
0.273867081291632
0.272093749424904
0.269354230646183
0.274744374989238
0.270674227131878
0.269150265519757
0.267626639640821
0.273144665929904
0.2688588836786
0.268305776925535
0.266938405173535
0.267208845640079
0.261152637506304
0.263868142683025
0.263831387442809
0.266748876288417
0.259662466489624
0.262741058198104
0.26367343392672
0.259885529949489
0.257322282162544
0.260494210680162
0.253114586190784
0.255787569121446
0.250636242602879
0.255829450321782
0.253013485487947
0.2500262825219
0.251241723760021
0.251081471686876
0.246531975585538
0.249377983729437
0.248552404072007
0.250148409270685
0.245354101007636
0.248020588989588
0.243227179805616
0.241508880473284
0.242859223556556
0.244627980426219
0.242737292822534
0.241352185228111
0.237458926600741
0.240737347125407
0.239934965927748
0.238642291193529
0.242365724382031
0.238584188503986
0.235246664162943
0.235296675048009
0.232532601786441
0.233239355326683
0.231820735931525
0.231938614810508
0.235865582494081
0.234597650798266
0.228534810139957
0.233776546002899
0.228564584727284
0.227852137266174
0.227168294201232
0.23112214449573
0.229296171367703
0.22868958623164
0.226188981493624
0.225043212072078
0.221855210369824
0.225567174198572
0.221294340941824
0.222096305355794
0.220919949991339
0.216473542678743
0.218659580455811
0.222832405084194
0.221009771013892
0.219080414535541
0.221190138480984
0.220864745002025
0.216027835549038
0.216907638348304
0.215848995763595
0.215219836013115
0.215174528565786
0.215544239442778
0.214794269042262
0.214345702163304
0.212056411349118
0.214351807562147
0.211990174286061
0.213324545068402
0.210232016713486
0.210823868311735
0.209891407697982
0.20790558866099
0.208609581545661
0.214364834345518
0.207366447030872
0.208670873118517
0.211477226791639
0.205480756600594
0.206361580000328
0.206732253556118
0.204843586725415
0.207194146009464
0.209516946414136
0.202541711558856
0.202333287597814
0.206035737636794
0.203817420481267
0.204962640499491
0.207175532614179
0.204562925916733
0.19820098334672
0.199347180326587
0.202905175277943
0.202834385767878
0.2023473013856
0.200778376688147
0.199041854397661
0.200349493520376
0.2022466071998
0.201358621525342
0.197766553643024
0.195794714144719
0.199482008598627
0.195348610509135
0.195064780290877
0.195312516986849
0.197564169363009
0.194978455805854
0.195172847571562
0.193734407875263
0.194662256316375
0.194722585961768
0.195369596722405
0.190824857193565
0.18946055327335
0.191235766352894
0.190142055517069
0.194244783951457
0.191268631387094
0.194661683815252
0.192563136856084
0.193091925130617
0.192182932294645
0.190691462038002
0.188400616706222
0.188621804055902
0.185879008199704
0.19027676063383
0.186471770856351
0.187640443155586
0.190585512802356
0.182842239799072
0.183530389726186
0.187878432993422
0.18754955821997
0.181991422785556
0.183730876718073
0.186675561918253
0.189416111636046
0.187027524144
0.18182557924876
0.181909103588745
0.180474639845765
0.183557398824003
0.182739713965942
0.17870255221345
0.180771447031577
0.180807490292618
0.181366081982291
0.181603964072731
0.181982435188066
0.18013719572199
0.180136922165156
0.179401835356494
0.177910366408735
0.177547027653312
0.17763142097986
0.176188922094087
0.180570659276466
0.175379528470732
0.178870762973263
0.17610080999655
0.178990860677555
0.172815655071286
0.177769842835299
0.175882941234865
0.174696072690563
0.17454296254658
0.168986615147441
0.170828866745465
0.174185497818836
0.173425316596801
0.173985548951985
0.170262889794012
0.17046135853057
0.168728286125767
0.165782487363995
0.169722400944257
0.167237270664437
0.168199464575078
0.167335486782072
0.164627485957075
0.166616459623606
0.161502527827052
0.163957657036908
0.160557832989255
0.162542363000891
0.15858782241143
0.159476106302442
0.161428153554909
0.162352420594295
0.158785039364957
0.158654691430071
0.157682343406637
0.159612065066663
0.15922834585024
0.161067545587598
0.15282958260715
0.155335871870537
0.158678438786621
0.151589519924714
0.149904968818772
0.15480333192171
0.154705391955207
0.154085418063471
0.151994321094506
0.153881987719099
0.152135675462205
0.152351059942851
0.151533625708043
0.152897593024658
0.149089661711386
0.151210639996981
0.144391733980119
0.147589689522156
0.149570714122753
0.148131171445291
0.143632045016994
0.145018401338629
0.144825926100513
0.143631548889703
0.144643218865478
0.146266569766733
0.143135286670855
0.143338346922458
0.139430220329996
0.142807006847557
0.141262195516522
0.143041601951083
0.140439925573659
0.139475469873211
0.138495444251
0.138401289802362
0.137906555362974
0.13964632224785
0.135754066675397
0.139962425557059
0.13666276028192
0.137617369040517
0.135223597790055
0.135326020645237
0.134662339724647
0.134529816015888
0.131329770960203
0.135611856723605
0.132690766473371
0.132010684885682
0.129277460701705
0.131613537286682
0.130133183139924
0.1327634195233
0.127360075303461
0.127154486491378
0.128789122671875
0.128504092939245
0.127573141771783
0.130781218344432
0.127101173782307
0.125641387760569
0.124253710054112
0.128358481560958
0.124583044989142
0.125494779448827
0.125630963147109
0.129580869898664
0.123315513937064
0.12725620763816
0.125824921589174
0.124847705743513
0.123276734052904
0.124584355991779
0.120183955221837
0.124798438675067
0.11783725576926
0.122084305539142
0.120297238964492
0.122601796739862
0.121667659342994
0.124701461937532
0.120834314133638
0.122993176979643
0.115230189506721
0.122436174882985
0.115653864747779
0.121075139946322
0.114519737095826
0.121631561807974
0.113986448338648
0.120960737696599
0.112867649130763
0.118534916270166
0.1124850492335
0.120481272754224
0.115395480856743
0.11805504100274
0.110202805564133
0.111136183045545
0.107085555750534
0.122392151296152
0.11197496357323
0.118567608487468
0.109347323244053
0.113855525522264
0.100963855802031
0.112703461623707
0.0981162669981684
0.115160245089022
0.10728696895937
0.114161230421178
0.105193122786598
0.114308486968383
0.105079812667566
0.117924798836931
0.0982062199299727
0.116728483493366
0.107754269133465
0.1152335502135
0.101653157558709
0.119286486624143
0.0968244396729764
0.115359888018213
0.0993795453031631
0.11707775014594
0.0964155783884081
0.113316327509627
0.0968110058329977
0.114309653061047
0.0950382553201553
0.118752878346507
0.101630492273218
0.123523368236869
0.097751600516111
0.116314154447008
0.087571441542261
0.114230135056703
0.0927458422232252
0.11903928626011
0.106485421692758
0.111489290010419
0.0971255488046456
0.106024723408304
0.104594554586349
0.108999448959131
0.108249128335711
0.0956969134822805
0.113146914191239
0.0912352889717732
0.122759609008234
0.0824110427383479
0.131177674048918
0.0826695828645017
0.12439477305905
0.0822947151179623
0.125607506184145
0.0839084650123961
0.119180989919931
0.0905730048589277
0.114258244097355
0.0981343975421477
0.107219815889469
0.103154942690519
0.102455872113804
0.103721056022855
0.103242322740914
0.102275991870642
0.103381588499062
0.0987765382014252
0.108315701127992
0.0968482454538364
0.106263462857162
0.0952056987702583
0.107070717636011
0.100184637757126
0.104748754078233
0.0988385429129079
0.105322095164508
0.0991772705356095
0.103288816209004
0.102716020160109
0.103993262741221
0.0994281036006927
0.103298933097157
0.100743983733408
0.104133772044251
0.0982015857086379
0.102425756186317
0.100152646266778
0.100786336890571
0.101713936872571
0.102970220276173
0.100885991912543
0.104294653382482
0.0987234218794237
0.102649303458692
0.0983418352153735
0.103864826077948
0.100335649531997
0.104147228464062
0.10139850007737
0.100822534772691
0.10156296797922
0.104431780659939
0.100910727424851
0.10359720637679
0.0992527931497507
0.104422639307797
0.100083128412818
0.103372397945051
0.099153611089776
0.0989127893387718
0.100078339750552
0.102650526483575
0.0963488734971042
0.104213924250144
0.100341786314142
0.102762112589349
0.0988238928403403
0.101224628010104
0.0985540808146656
0.105245693526987
0.0995180781638785
0.10361693767274
0.10415460486055
0.102423259449528
0.0975708177574057
0.0999232562721092
0.102543912914357
0.102127089998866
0.10265502716909
0.10115790485833
0.100653934611382
0.100960749599601
0.099832199259849
0.100916871898043
0.0998164010480253
0.101712391479814
0.100605411899762
0.101268088630248
0.102252773650931
0.104712626178396
0.101432380100998
0.100981528520984
0.103826533490649
0.103619340657782
0.0999728053788428
0.104099436386658
0.100501631383596
0.100346157856357
0.101230210478492
0.103263431288513
0.101341698286254
0.10254800100285
0.102693208690423
0.104173560061542
0.103370152659544
0.105299073461047
0.103061562782925
0.104267428474497
0.102348703391961
0.104092800853584
0.103941454738823
0.104206652406129
0.104461936133204
0.104400731908821
0.102871906704546
0.103983111609606
0.102719851550978
0.103932136114883
0.103229992038272
0.105981035497723
0.106481367152903
0.10463811413453
0.105701470926352
0.105999408690177
0.103589751411653
0.1058358442674
0.106388696374792
0.106118620075207
0.103298446646129
0.107561613970001
0.102013938495778
0.105519984143821
0.104348703582531
0.107760306673809
0.104145958859534
0.105337448101546
0.108375793836155
0.103911351531102
0.106505554772534
0.106666094085292
0.109065833899942
0.106871994430954
0.105711435773785
0.108831653818858
0.105571958095874
0.105642990712557
0.106657621122201
0.109186833267423
0.107525899960583
0.109165006887078
0.105393558806303
0.106696334842753
0.107651818013191
0.10706114750484
0.107406509634668
0.109120431479748
0.108153530984469
0.105143621153636
0.106894272217316
0.106315361491355
0.109429235527621
0.109056083798908
0.107956534115078
0.108208933875077
0.11112335318313
0.110715026340618
0.111698594207061
0.11252754809306
0.107571501085276
0.110537071416636
0.111182170993097
0.108216397156074
0.110438981556719
0.110390528403821
0.109758582673953
0.11251329103953
0.111074146540789
0.109698600509998
0.10995303888605
0.112658541631356
0.111544230136389
0.111092994207548
0.110121630338115
0.110475814565394
0.111401374242444
0.112232070384904
0.108943733730286
0.109664174430889
0.109790892245114
0.109107322440104
0.108075462312587
0.109581813626651
0.108593700065271
0.107961351735445
0.109166803873242
0.108240419247218
0.104015021276833
0.10690729906076
0.107378418957483
0.107376309404766
0.107560769244681
0.106538036437249
0.10792754435299
0.106294588168361
0.107118186302609
0.106680191910487
0.10959928778308
0.106371605284965
0.106533017496159
0.106857678667538
0.106144115202351
0.104572151938325
0.107078958443733
0.105423580022205
0.105923338431675
0.105208351072727
0.106868357557909
0.106160571288621
0.105506403969928
0.106558077252002
0.106430881384047
0.106230924759992
0.104043433708007
0.104951792360123
0.10434641325539
0.104395373948041
0.10427170812917
0.102253197386435
0.106603755421858
0.104736797066826
0.103068470273313
0.101991698837819
0.102157249464708
0.101039519130388
0.0997975098705115
0.100604353151144
0.102433549181971
0.102459801171973
0.105155302957264
0.101849538879194
0.102019729283679
0.0991549754465816
0.102289657205243
0.104511423653718
0.0998221594568653
0.100161773072656
0.102021444494661
0.101366922907262
0.102227480709927
0.100963037604441
0.102009380787513
0.0995394758195908
0.0989004071925448
0.101739739512353
0.102063690657182
0.0997480931770126
0.100535867320492
0.0986786605042843
0.101076215049907
0.09921638346324
0.100955690410557
0.101599341717887
0.100935960925047
0.0995750337190601
0.101975915409876
0.0977002531059345
0.0996971237657606
0.100034422050589
0.100076153828727
0.100187521472498
0.103931622278316
0.0981960273691824
0.100071240841176
0.10124773955538
0.0986875340202995
0.100280320761877
0.0994448785989785
0.0977001030479231
0.0996493080680579
0.0981947967425695
0.0995128889385301
0.0997496376659449
0.0998180259605424
0.0967348122442854
0.0981805985051241
0.0955214624353759
0.0987941414567792
0.0977959104232299
0.0977087587971848
0.0973227073932423
0.0928984208646272
0.0958195691976256
0.0988274403067686
0.0970515631237558
0.0964998585607514
0.0972871814487987
0.0989408763695112
0.0947835999589428
0.0967928067522917
0.0957864777661285
0.0965714598926987
0.0980387784696082
0.0963084896282439
0.0933291101992293
0.0972515328194155
0.0938720892263791
0.0949970269803575
0.0937273070801785
0.0925925587651855
0.0935019253248008
0.0933790578052715
0.0910007995092058
0.0925766152071573
0.0907171139901118
0.0920377690912092
0.0912589641927387
0.0888305936628573
0.0890862849427111
0.0911654946424481
0.0921036261930352
0.0912053049437981
0.0889237376241338
0.0918921009310848
0.0879646604627549
0.0900226075076669
0.0883724174991473
0.0895233015601449
0.0869631015807275
0.0899610100597218
0.0866946414644811
0.089147404725043
0.0867546189685906
0.0853810643494746
0.084140823444439
0.0853154768614113
0.0832830096158023
0.0843915551335307
0.082037776176126
0.0880032096010628
0.0842972190685772
0.0856360213083873
0.0840611241099471
0.085838441762886
0.0808139709002514
0.0842061196238936
0.0823811702341516
0.086106186202501
0.0833285192274012
0.0857383544738627
0.0853362861397825
0.0828743668712782
0.085109591349849
0.0826812970632858
0.0808987527078617
0.080861280576252
0.0827184681473926
0.0810453635005987
0.0808462487155383
0.083250425971495
0.0806281614113016
0.081911401771006
0.0812107744054583
0.079893786558261
0.0774251284396805
0.0819705182342922
0.0819988033876541
0.0818203304920804
0.0783374638882967
0.0805730624399704
0.0805702271074755
0.0810541508102276
0.081171699642458
0.0792674781170505
0.0798032951223572
0.077197262733174
0.0822561532395673
0.0793616047253026
0.0824939519496228
0.0790356070099154
0.0793422608665916
0.0763602213374776
0.0813221215882428
0.0775615511765732
0.0797281298549371
0.0794702032250892
0.0787449677644676
0.0771581614289025
0.0779845370483733
0.0800921681631855
0.0772167562615793
0.0768180811760512
0.0776197786732495
0.0741293142730797
0.0770471547348275
0.0753002340067767
0.0776609066525824
0.0773038597344324
0.0785127898435457
0.0755371156543713
0.078601243397489
0.0755007137642491
0.0798914993275966
0.085306348504376
0.0718783504131269
0.0809204969128142
0.0738234537139977
0.0791816943731668
0.0759816164365775
0.07784734919632
0.0764572236921605
0.0781057473354345
0.0729666057846534
0.0754507691283941
0.0737714885876725
0.0756960774718853
0.0722189865690653
0.0773275071096824
0.07244268535978
0.0774629131677436
0.0717639982748509
0.0757504509681714
0.0730572510246758
0.0770941373086893
0.075731059656484
0.0748088368194251
0.0708860768973612
0.0779901148405252
0.0690028515347215
0.0868216180269117
0.0701742106136483
0.078584925948704
0.07230394298585
0.0755794481135303
0.0721826236132158
0.0762428549759888
0.0734927486888263
0.0770963421512057
0.0816600617568464
0.072942033099425
0.0767017808090776
0.0713439499501788
0.0744843358561135
0.0717085493221473
0.0743880021353805
0.0745640013287933
0.0735900184142753
0.0757510827493103
0.0727421550048855
0.0747127646308516
0.0725257761323659
0.0768560699181501
0.0744128026018731
0.0782548347722825
0.07548181225447
0.0746054025396718
0.0742017264452121
0.0732221381304222
0.0740505689466833
0.0754234142143263
0.0813408854017033
0.0672587020849747
0.0768436086117397
0.0721199616798612
0.0781727838781473
0.0735499840097394
0.0750079538400744
0.0734145404261477
0.0751402102617161
0.0757336285217624
0.0760827152455755
0.0730287524144335
0.0741186969104364
0.0740752882237694
0.0735761827566936
0.0757771740175665
0.0728993343757459
0.0747814810595974
0.0697436790967305
0.0773524766703983
0.0725404136287802
0.0818485111523545
0.0796330225563831
0.0749872264947274
0.0763474317940198
0.0711461983863692
0.0736233984964212
0.0717181383915038
0.0775230791077913
0.0726854426379296
0.0751988590798821
0.071078702121572
0.0766970516651435
0.0737796453672934
0.0774785684014227
0.0720785576554966
0.0780922335781537
0.0737109324880401
0.0761224302219272
0.0710678173550594
0.0794068744259588
0.0722652054414382
0.0790786219370218
0.0690149334707305
0.0819749141650522
0.0711041191194669
0.0800022789412733
0.0707039853044932
0.089501021887037
0.0818974756637756
0.0705758691935132
0.0826272118383873
0.0705754727339802
0.080139697241929
0.076450934687207
0.0777988835554868
0.0770445640170351
0.0773006059952743
0.0769968906321184
0.0797787427892538
0.0748919926247473
0.0776754586968978
0.0751652513225758
0.0785486428266311
0.0843906521232606
0.0746801091354505
0.0816964342522844
0.08072204778961
0.0703615944578122
0.0904382241203986
0.0724528783227232
0.0824589422709517
0.0764408165291609
0.0795575196795699
0.0792332987588332
0.0810063950560802
0.0801124140991122
0.0829593006844828
0.0792660858695152
0.0757007226354606
0.0803709390660078
0.0784925883184989
0.0819123579462517
0.0802672833429552
0.0827978359582963
0.0859733132234766
0.078479459479768
0.0823908126762744
0.0816760813933943
0.0806717554149718
0.0821864542463025
0.0819955472452851
0.0834367680584858
0.0845552158528053
0.0909430171104525
0.0844929446965237
0.0851910388932061
0.0863453575123717
0.0812963089076274
0.0858947410717718
0.0857784725300777
0.0874532946147427
0.0861457511075799
0.0810886288043015
0.104476979006439
0.0762942612759899
0.103013850443277
0.0779357248730479
0.0933562378364021
0.078651273212048
0.0953747387175821
0.0805282214720889
0.0954173709787424
0.0822385674200521
0.0903430264305383
0.0886935292906734
0.0895814595545956
0.0928186611952393
0.0871932362280142
0.0924500674067817
0.09110709251754
0.0903014148057146
0.0914990566664825
0.0977236970750482
0.0847624777737269
0.112195572778954
0.0876741927535553
0.0903453014837377
0.100027393357602
0.0869174558935791
0.110241020953086
0.0909461030138911
0.0966414690949851
0.0970230792107991
0.0946821169190261
0.101043273586643
0.0902513322104801
0.1093720023113
0.0979023134599565
0.0945541320148546
0.106243861150534
0.0947325094794973
0.109725149219971
0.101857030099621
0.10083400529808
0.097644683731225
0.107930170440128
0.0990749916978127
0.10989854947632
0.11662395063597
0.0965279302610485
0.126780255672494
0.10086703893779
0.118973338785892
0.10403204194419
0.118798170803337
0.109937585884971
0.122685939687907
0.106578083765229
0.119734439606093
0.110825199550837
0.134511698779766
0.107286344778009
0.127187732593915
0.121888665559535
0.124269015474386
0.129854632589541
0.148041480590183
0.122714217274694
0.13501382089058
0.123845529316458
0.143216935305005
0.130155704408907
0.136057968420961
0.13780945382578
0.138124558518539
0.140329319218941
0.141005718215749
0.145081673285633
0.146965203792744
0.142784091530453
0.152945414080567
0.144944317455558
0.172247489665427
0.150331642567354
0.175614319391675
0.150486213117653
0.167351076347971
0.158283178670493
0.159435157831727
0.162215690202361
0.159421638445003
0.167783077530405
0.168419418976321
0.16883582921374
0.170348999478585
0.174857849388078
0.187267041767162
0.17233315830374
0.201126779518865
0.173431860350724
0.202061162041672
0.173072147348672
0.278054668035456
0.201542469552306
0.202704758448826
0.221953076960833
0.202342396431333
0.264049325019097
0.227512441935881
0.236151806004261
0.246374053730555
0.248596353098147
0.253567886252593
0.26763619701695
0.271596056345735
0.283938787689816
0.290695798949962
0.292723346215593
0.292865783710426
0.335250239378927
0.320927146412796
0.332204472649933
0.326567449411878
0.350003973090205
0.357428371323469
0.356271125904768
0.361375564026041
0.384941676426833
0.359070324406226
0.436203685814716
0.39852293427076
0.415363559945362
0.410384127894334
0.442611356236579
0.435746469755151
0.447125141249649
0.480923623978056
0.457300046464644
0.47979536039737
0.469252466641449
0.501415477209734
0.488198236848689
0.524130728443498
0.520969600769189
0.525593314025091
0.532394515526257
0.536590750805524
0.552051308176355
0.542133990109025
0.557246668680601
0.560358051342748
0.572580231302857
0.617417120886843
0.618440603030456
0.601417979927086
0.569278228736777
0.599450246703366
0.565830466098809
0.607482647270786
0.601136604983518
0.590683527458476
0.605120728375035
0.592973446473133
0.601293685584079
0.585873264536054
0.595865026402453
0.592653565586052
0.609503435805627
0.60637258899693
0.601226151567695
0.629709163252782
0.582582299807219
0.679539112364241
0.58740562169475
0.601691537778247
0.593533475275946
0.610589531876527
0.602109744185843
0.606909468787856
0.586813181131396
0.63255179197349
0.585611976738415
0.595522726628811
0.586188276657505
0.581803650064738
0.596728313726404
0.564802282104292
0.557549957075248
0.551075734398999
0.546524629293815
0.545724615038878
0.525867755316687
0.587474108038541
0.52001513644556
0.521138526982774
0.514956630401139
0.515107667141108
0.514097524784648
0.50863888936084
0.504669297893046
0.502336401296117
0.49486855640414
0.496899135883482
0.484416915728048
0.488938722007589
0.492553113343621
0.493255808993368
0.48356486058646
0.47376894862572
0.473797428771858
0.469903058307708
0.469404539482865
0.466048106652877
0.466804202504015
0.464650289324253
0.462323401273001
0.468032499280377
0.464888015001387
0.460156196822328
0.460666531606304
0.458461554948744
0.459038075241962
0.458515737343947
0.457230834044566
0.452059889020342
0.456694323497016
0.455613207495199
0.457593190687527
0.45492313960763
0.456431894421662
0.446580837085163
0.450819524117197
0.442620461830136
0.452478952431911
0.451704144069003
0.445658363187043
0.470736191224179
0.432054512843858
0.449963213253891
0.433263034275879
0.440865252673374
0.433530932201302
0.448395547673845
0.453467390029429
0.428668439650055
0.426649878685658
0.426456337655317
0.421443163780659
0.434552400874329
0.418628299179541
0.422802253049741
0.423566915440771
0.41077151935138
0.479510087779745
0.405157020038846
0.462975360070584
0.418873334349705
0.420914407039836
0.40917138851708
0.440041331183531
0.40985114811661
0.413325552472892
0.416885439339884
0.403007910821589
0.427819239829478
0.400364850383923
0.413138706042582
0.411670227934524
0.407304401960571
0.412778611232293
0.408831526851001
0.403775881721039
0.417970937597137
0.401892939535745
0.399701024673226
0.41397466281262
0.398561473163443
0.389648765529784
0.382174926865053
0.381764372637691
0.379957668190769
0.393789501009948
0.387086772586065
0.370371617676757
0.377078294372788
0.359865981526821
0.37199194238765
0.356676579651007
0.366536846161218
0.350998044657973
0.362872056434355
0.355750688243353
0.339503144251699
0.367682611927091
0.343760296633331
0.363186020376508
0.341490171505759
0.347848100429957
0.338798084327518
0.360841063459538
0.338139271848434
0.335219042535119
0.336183797204963
0.326180773451999
0.333235078012102
0.325426890859122
0.309178300604397
0.33455842096491
0.31563823192288
0.334040376959543
0.327458826609489
0.313547923983826
0.307953789464019
0.303760702426902
0.302737986993081
0.308787164944636
0.297896529748825
0.307674464137483
0.288270149341108
0.316118832850042
0.290606097479189
0.312925285064957
0.308004623239442
0.303024511355496
0.301487789990789
0.306722008231002
0.306054787267001
0.329541320520411
0.308822684451992
0.323683699898028
0.309831805189866
0.330602175185683
0.324504066305805
0.329744868935638
0.327296889227603
0.333195806418099
0.334299688909925
0.344622314701668
0.351926472361815
0.355021783079965
0.360051926264709
0.373518384480033
0.364698271516899
0.395918385045307
0.388252410215497
0.394483168231198
0.424242962184032
0.399797821376414
0.436774123254869
0.420129849126531
0.43312405593541
0.438257342456305
0.437509021873757
0.4510501503703
0.450794288704352
0.474580559143424
0.47189043627125
0.469051409152833
0.473866418918856
0.476964605673986
0.492869088466621
0.487514819691403
0.518502039097144
0.469030791464915
0.533461759801644
0.510737885977185
0.514665748111981
0.511343510363612
0.513038303492341
0.526631490883901
0.510803537080254
0.523289627140404
0.524942007933112
0.536151283519275
0.535222311936209
0.535672171377123
0.538412315260694
0.538469984055868
0.538499591039182
0.542959272841454
0.551699041617822
0.552064338553875
0.547907861600126
0.563359458038219
0.558061300929917
0.574001951293613
0.588943816312823
0.561612668225086
0.580211471112002
0.574618449400126
0.58629043804596
0.582184949265852
0.597963003133545
0.599977035130758
0.591491284866426
0.603853001503432
0.605580076571529
0.604736431646014
0.608746751014624
0.611391281764508
0.629090366556436
0.612209417053804
0.630152613354952
0.616942660854561
0.665865140311678
0.6397032750929
0.635124182132039
0.645071827125407
0.640023111620917
0.648352064788004
0.64697607037138
0.652058304944371
0.649539032123221
0.659720236504774
0.651468351024566
0.651049249587477
0.645767784486264
0.654798706345056
0.655151503718685
0.664313600244134
0.658792065738805
0.650107261180219
0.652339613151261
0.646182122189699
0.652441316605527
0.661886724369416
0.66307160414408
0.645158180056109
0.652178467041166
0.65067047911583
0.662531635106088
0.663504893187403
0.651783785164752
0.651350841379092
0.659844945482538
0.646838936721225
0.654086166091963
0.651063590188127
0.664605489008164
0.66729482373123
0.661841289302262
0.668477742201203
0.671667862180969
0.679005066235181
0.674633154737428
0.682181930865199
0.680557298277574
0.690000542717378
0.688072705686404
0.70033121899856
0.68352940818829
0.69204852106847
0.698881766241121
0.698239949516722
0.695004567426779
0.69932105563075
0.693383356759556
0.68408228648011
0.697833969484125
0.687775122272379
0.681263647086724
0.68440361228416
0.67497103004206
0.676193327813203
0.661975609667878
0.66622553400893
0.648818269055083
0.649501167520338
0.639706104826784
0.641809744082583
0.637374126424417
0.638180084090682
0.637268929580822
0.631009404124301
0.63100132583116
0.625445715770628
0.623306944852065
0.617088003828785
0.617907559372511
0.614988382800713
0.612877153195932
0.617401887787585
0.612704195759499
0.613403795647669
0.60730712822469
0.610283411054624
0.603625890127914
0.608581854247064
0.609994099112513
0.618425219686352
0.610056467831571
0.610630602605016
0.612964377972889
0.610776706108291
0.608309981631493
0.60659120110172
0.603613410667065
0.60394605386517
0.60791360776003
0.605611862636794
0.605509531402486
0.606078309650379
0.608460326620714
0.60954035738959
0.600515138103588
0.602705091018055
0.604406815058468
0.599764695910999
0.605168524571597
0.603622772724389
0.609306886277768
0.601132968577469
0.601974106842654
0.600058505379084
0.601963347153296
0.601103329607301
0.59434456574447
0.59998962172081
0.605990708661756
0.601590261134084
0.602452776886509
0.597458219911055
0.600831490838788
0.604341693270869
0.596445291097614
0.595961166838923
0.603322679438094
0.600296805923547
0.593785653057686
0.598441164959445
0.593687582984165
0.585085284336155
0.582467241143441
0.578964753154285
0.573025239644185
0.566722901083702
0.565331849912081
0.560516111776335
0.552941881638419
0.550943734401884
0.54616366181235
0.548711486094538
0.541754424098812
0.539800144818393
0.534678354830259
0.537022746299224
0.534981134648965
0.532803472780957
0.530310901925385
0.528292344314148
0.523994180319209
0.527649373539126
0.519024586412069
0.526541034628887
0.526865595430142
0.523865986531129
0.526736402480339
0.528639510389174
0.527006132982995
0.530775075170459
0.526802418869018
0.532035326386627
0.53704161573049
0.534563816412584
0.536484037759656
0.537943583062427
0.540791002766441
0.542374373180558
0.542918835465105
0.543939078448954
0.544049755766226
0.550696677980606
0.550399197737443
0.555268677897944
0.557038691081646
0.558134559165274
0.554641389429942
0.553091537382977
0.561417679060518
0.553464191555576
0.554626094859215
0.556750058073171
0.556764884027327
0.554238499316395
0.55787028383843
0.549578417985294
0.551155468772615
0.551272698795894
0.548783030422604
0.550110905559888
0.54565129475771
0.542765953003674
0.547962711119942
0.543450575466333
0.538704465685632
0.53849473264538
0.540467145357261
0.534266851165344
0.53494309262712
0.532344759364839
0.531726146093818
0.526696519221756
0.529667748947929
0.52513182918013
0.526061926892755
0.520348975166896
0.522673877423665
0.522293177754152
0.517085463414189
0.515420158910101
0.514088469517464
0.511167645745825
0.512333099729882
0.508831041894745
0.507133204597517
0.507522451069889
0.504466379462286
0.506029794661497
0.500461664283131
0.49836806517756
0.496310101414269
0.491836614796827
0.48729864927138
0.486596598454874
0.481683537256108
0.477395486473351
0.475585698459787
0.471062450887324
0.467872646311822
0.467358356343254
0.461869740968799
0.458452513828554
0.45871013143804
0.455126125338828
0.453564500092391
0.454383014682032
0.451288673943434
0.451869823583781
0.448105387745062
0.446459227568428
0.450736338163474
0.442527947666434
0.439117821866029
0.441282122515781
0.441190370230927
0.433107429805251
0.424090716113658
0.420873537276676
0.412681418262068
0.409815724203963
0.406099042776759
0.397851514981895
0.396578866901554
0.394195685018658
0.393750817099872
0.394888700402289
0.397140891351991
0.395755460105977
0.401706557174396
0.406883435668964
0.414544085306333
0.423935613071787
0.435099796594701
0.448893855129255
0.463681730020594
0.474884647441239
0.491101018530996
0.512068620275583
0.524447308766065
0.541864579533583
0.563933640382769
0.575523056315193
0.592872121302114
0.610700758508155
0.630900335054587
0.646152769362877
0.662033013576531
0.682109626660894
0.696908709119954
0.712508987683248
0.728328174176263
0.736715970487181
0.748332129772087
0.77115216579914
0.779204116190045
0.79064204943943
0.804903192805241
0.813156531268575
0.82802855199937
0.830334182293752
0.842049755020122
0.844824914396644
0.846877743125895
0.854348077091221
0.855544795767016
0.859847567945451
0.862929846102106
0.863414063703449
0.856365300783944
0.860435748073121
0.865952414467404
0.860172826794405
0.859169079064179
0.862149692444801
0.861401377552075
0.877188104760441
0.870314965079777
0.873316990062298
0.872400975787342
0.877185904607357
0.884541523009183
0.889454855226694
0.898512694529553
0.908689914626438
0.906487582054389
0.914516642130274
0.922246509330081
0.926988679489531
0.939625603159373
0.954956933925615
0.961171100188389
0.963566749129078
0.993630187612717
1.00979137372521
1.01599113632361
1.02656244963428
1.04332206977763
1.0423089372193
1.06675346902911
1.05465849037834
1.05795121288391
1.07852719881614
1.05146212518611
1.0727639718602
1.06454830803663
1.06095772545732
1.05925997706005
1.04849248906549
1.04858310051649
1.04774235666368
1.0438989866535
1.06200529705493
1.06677135130103
1.0779233579606
1.07374624385464
1.09428823042605
1.09921541261388
1.11637385620084
1.13027530370045
1.14533704908854
1.15498091626417
1.16169091645863
1.17267204516275
1.18455679756567
1.24536356629604
1.23750505826676
1.25780109731796
1.26071486904126
1.29103577606387
1.28162379744587
1.32041097212212
1.30637955677125
1.37165893978985
1.3658747098131
1.36265647310315
1.40057112327815
1.44160442630352
1.43776470904839
1.50844889151264
1.55223423688494
1.53640989274402
1.55870591018855
1.59803864878057
1.59188993080729
1.65889664397988
1.60583218459301
1.67849505505777
1.64925180218288
1.69675852339626
1.71375330648
1.71008459067178
1.73733763846337
1.73458901887663
1.69122685734157
1.67810691442859
1.61145580259123
1.7451064570885
1.68124078965073
1.7497784749852
1.68730604912142
1.75947394754564
1.6256031141233
1.74262454377826
1.72679152803374
1.73132603135019
1.65309779086848
1.84910236844827
1.67299263130923
1.87198476602758
1.77796787670199
1.76676398193123
1.9204101640427
1.8853352363187
1.77902337735632
1.9034462521575
1.82395360905557
1.83007632349744
1.95406236067357
1.92884284159626
1.96362669318183
1.93330902371143
1.85321957361723
2.23459430695617
2.0657444522646
2.01183211642491
1.94475468531612
2.13124056619001
2.01192414281886
2.05593598586274
1.9425592338668
2.37498344318382
2.36305455062588
2.11604710874726
2.1476729249186
2.33284646635399
2.28978381891993
2.18517001382663
2.11942277331813
2.33480554727406
2.26418789059499
2.20672380822066
2.17200940945307
2.50969851149999
1.99467206081175
2.10972355407527
2.3438605477296
2.29573872068061
2.08862244165396
2.38962365621949
1.97099275116281
2.47721373576586
2.03873549425588
2.02798344688755
2.05843537985398
2.03431977733265
1.83758516422889
1.88140913328219
1.85928801746024
1.77944226853545
1.75329172338768
1.81477651789007
1.78403701910886
1.78904224792639
1.64119789275236
1.6897248575549
1.59794260536988
1.660849316963
1.59729377604028
1.65093506588052
1.58750852512025
1.6354005809448
1.63317867949172
1.59486764139544
1.55966415092381
1.52685007432006
1.52233221614863
1.51575322177593
1.45690122766593
1.51316805436973
1.41967239317425
1.42010467791957
1.35270006849211
1.38776849345494
1.33432738406359
1.28825602305996
1.24714532112136
1.22436430238377
1.1775032634661
1.14397669970666
1.08676517915409
1.05109586588789
1.00875296347364
0.970437864904687
0.921907459475755
0.917788434385578
0.861049010806456
0.814060474071503
0.810670877475337
0.779218816391806
0.750574111867984
0.727603398058597
0.701196828371458
0.684455651916624
0.656700231787329
0.652857022490837
0.629400446717446
0.630347362800921
0.618300951175214
0.608343199882667
0.605131579319802
0.600208610845464
0.592977291282278
0.597999621942386
0.594443452728207
0.595762393028131
0.59151986548348
0.594361501806976
0.589499952692097
0.598314565428037
0.594106343485244
0.603081789504502
0.594226245198878
0.596295167155299
0.595988849602502
0.593184917631916
0.580032387511625
0.587029918229022
0.578267919936503
0.58155010956559
0.580796824604435
0.564153859466459
0.571886554744099
0.566081733675522
0.557449927864179
0.565944704488532
0.555511218815479
0.558183031024118
0.55153005574136
0.560163249667587
0.549706481913673
0.559284351532807
0.557204618318541
0.566920121692346
0.571617672600763
0.575012064233177
0.56719185416074
0.575686634882177
0.577860187726424
0.586435841181216
0.582812958757211
0.597889519635559
0.583048370595182
0.587323157190735
0.585044922619952
0.594696269869768
0.581971681816517
0.602777525295038
0.585759647637535
0.59622777082859
0.584396511370746
0.604699616217756
0.599339966274865
0.593073064468432
0.606750685965499
0.613466826677967
0.603619992470675
0.614680981497068
0.62669927284499
0.638234561508984
0.641129827308542
0.660123247724896
0.660652742948546
0.693556080270413
0.706297613347436
0.726558345041766
0.733067246548572
0.768202485729754
0.755550823266699
0.781361229733059
0.768671894853486
0.767144461905908
0.748504051370516
0.75788995448671
0.741145284089997
0.725296064916347
0.717134353205241
0.730485671644478
0.702292247967852
0.700279661217611
0.694916418147271
0.681330565668563
0.684856311375764
0.694160338351005
0.677203217270533
0.693711149578851
0.692118126672751
0.713682607023142
0.712079618897673
0.704121682116913
0.698356219012775
0.697246643740911
0.67345283160438
0.681832506048526
0.676476690123395
0.675305059477423
0.656731623183429
0.645964742922553
0.659408662131405
0.653188797384639
0.62719527966452
0.639101593296226
0.640230066934639
0.636004359968043
0.622711263569393
0.640104599970797
0.635180009775402
0.615789993999578
0.61280358863401
0.621165835585707
0.614644837944833
0.618532012961837
0.608822708217159
0.601540047965235
0.60693325073822
0.602230415662023
0.587721198694987
0.608616319580504
0.593780498993611
0.584128707625728
0.589289186335754
0.589236206725979
0.579312825352521
0.58209408140487
0.572555188470254
0.572730921282018
0.584507567432018
0.577317941242416
0.579442620558136
0.575072440843748
0.559778716096347
0.56777352169126
0.558857509152683
0.569781778565674
0.563887977700383
0.569960775955252
0.573678418689746
0.572973535091706
0.558904070812942
0.558180086379742
0.536668190086615
0.560106474530248
0.55109371109971
0.553361133722706
0.56083959613443
0.569073160493489
0.558262982923902
0.556068868896999
0.559304368029779
0.573482227539879
0.584174833192607
0.579428088192517
0.556284519889228
0.572754657716504
0.589869695041504
0.597592981946527
0.561528965336474
0.579862092148629
0.576035701298348
0.609837204762023
0.594565279879671
0.590212549801979
0.592018482095684
0.621736169536462
0.599650192614807
0.635935906653387
0.623043824527668
0.655900377070028
0.62753617558355
0.659608554083555
0.657381331489705
0.657405007270112
0.671286008005601
0.735203659938242
0.74984441185109
0.754755567838724
0.761215522265219
0.77860043561869
0.791685147909853
0.829246091424888
0.81202989513505
0.856155668513657
0.825276297793152
0.858757762200696
0.885692167575939
0.916447102699084
0.863676513897245
0.910455031354411
0.92425721402022
0.918848819420461
0.837133150409008
0.931054216921972
0.89050398261624
0.918064175034642
0.869596138298639
0.9072492744276
0.898997955912353
0.944312541793936
0.888867594038825
0.888796785445359
0.905746051577739
0.942492005842477
0.855973793277145
0.894796992256381
0.909896325999649
0.918858944941852
0.828364917238274
0.919166802826032
0.835291564597144
0.913008992977252
0.838454848745102
0.886735696449842
0.855238919314153
0.893815895465948
0.872815150937545
0.881733950333199
0.823878262536043
0.877591163990097
0.85150447836047
0.884539329174686
0.749244432912595
0.805893673190911
0.795184020245156
0.852378218862707
0.806520031846657
0.777050826779289
0.828993972750885
0.862780134445452
0.766861754929935
0.883846135284314
0.803081984233141
0.837729324789447
0.812673674271355
0.832519873333234
0.905819454613112
0.879558806116044
0.807721385916358
0.889132593996042
0.827293550452295
0.913743594362998
0.824650038491797
0.917110457206136
0.857024316881267
0.881920550537596
0.826824403699141
0.882687597656312
0.866581146728028
0.94934684219478
0.909510817849193
0.983868621647204
0.813773151105171
0.928151014380392
0.833797598242414
0.852837850802418
0.913057510860136
0.884648587262734
0.921042088349361
1.06582054401333
0.883884638583751
0.944876996741702
0.896483648526518
1.3135079193882
0.927843486597593
0.8659496567807
0.96293444896052
1.17113496561845
1.0217729776193
1.01133933176712
1.00655808737644
1.31047365542945
1.07405688211359
1.05571641525015
1.06515296689795
1.1612983104958
1.0815414999075
0.98255443311161
1.08606233233777
1.20975632683888
1.00800044922412
1.15988573254977
1.30435133589803
1.12585255873506
0.912315146152226
1.83192614929003
1.20224741483866
1.25693017852442
0.950453670709692
1.13552679499723
1.10366254403794
0.842784206001524
0.975189148060008
1.11095182173718
0.909107307782648
1.47763585279615
0.933217652566279
1.05462934997268
1.14030998833453
0.786964094919961
0.915016008091358
1.39982311212041
0.907475873843709
1.04346040569836
0.858025461988476
1.06999090576471
0.73082233286307
1.59015597632618
1.25101116072434
1.24897090420616
1.15229130608975
1.1179741445654
1.11844947528775
5
1.42901106242403
1.14950018568654
0.840875376941647
1.03248436764322
1.11142159889748
1.98679571874932
0.885281903663768
1.28706096539139
1.51173126438387
0.995856437110263
1.18389006286847
5
1.37249919762764
1.66301451094539
0.862843520838957
5
1.87785471341671
1.24132252884285
1.4110207211492
